EMG
0.0200000000000000
0.0170000000000000
0.0430000000000000
0.0170000000000000
-0.0240000000000000
-0.0260000000000000
0.00400000000000000
0.00400000000000000
-0.00600000000000000
-0.00300000000000000
-0.0540000000000000
-0.0210000000000000
-0.00100000000000000
-0.00300000000000000
0.00900000000000000
0.0430000000000000
0.0760000000000000
0.0580000000000000
0.0120000000000000
0.00700000000000000
-0.0190000000000000
-0.0190000000000000
-0.00300000000000000
-0.0190000000000000
-0.0210000000000000
-0.0210000000000000
-0.00800000000000000
-0.0190000000000000
0.00200000000000000
-0.0160000000000000
-0.0520000000000000
0.0170000000000000
-0.0130000000000000
0.00700000000000000
0.0120000000000000
0.00900000000000000
0.00900000000000000
0.0380000000000000
0.00400000000000000
0.0320000000000000
0.00400000000000000
-0.0290000000000000
-0.00100000000000000
-0.0130000000000000
0.00400000000000000
-0.00600000000000000
-0.0240000000000000
-0.0360000000000000
-0.0290000000000000
-0.0130000000000000
-0.0310000000000000
-0.0420000000000000
-0.00600000000000000
0.0380000000000000
0.0380000000000000
0.0450000000000000
-0.00100000000000000
0.0150000000000000
0.0430000000000000
0.00900000000000000
0.0150000000000000
0.00200000000000000
0.00700000000000000
-0.0590000000000000
0.00900000000000000
0.0220000000000000
-0.0110000000000000
-0.0210000000000000
0.00400000000000000
-0.0190000000000000
-0.0260000000000000
-0.00800000000000000
-0.0110000000000000
0.00700000000000000
-0.0190000000000000
-0.0130000000000000
0.00700000000000000
0.0320000000000000
0.0320000000000000
0.0270000000000000
0.0250000000000000
0.0120000000000000
0.0150000000000000
-0.00300000000000000
0.00200000000000000
-0.0130000000000000
-0.0260000000000000
-0.0340000000000000
-0.00300000000000000
0.00200000000000000
-0.0160000000000000
-0.0130000000000000
0.0270000000000000
-0.0190000000000000
-0.00300000000000000
0.00400000000000000
0.0270000000000000
0.0480000000000000
0.0480000000000000
0.0810000000000000
0.0680000000000000
0.00700000000000000
-0.0360000000000000
-0.0160000000000000
-0.00100000000000000
-0.0240000000000000
-0.0290000000000000
-0.0570000000000000
-0.0240000000000000
-0.00800000000000000
-0.00300000000000000
-0.0160000000000000
-0.0240000000000000
0.00700000000000000
0.0170000000000000
0.0270000000000000
0.0250000000000000
0.0250000000000000
-0.00300000000000000
0.00400000000000000
0.00900000000000000
-0.00600000000000000
0.00700000000000000
0.0300000000000000
0.00700000000000000
-0.0210000000000000
-0.0310000000000000
-0.0210000000000000
-0.0360000000000000
-0.0190000000000000
-0.00300000000000000
0.0200000000000000
-0.00100000000000000
-0.0130000000000000
-0.00300000000000000
0.0580000000000000
0.00200000000000000
0.00700000000000000
0.0270000000000000
0.0300000000000000
-0.0110000000000000
0.0170000000000000
0.0270000000000000
-0.0110000000000000
-0.00300000000000000
-0.00800000000000000
0.0550000000000000
-0.0470000000000000
-0.0570000000000000
-0.0310000000000000
-0.00800000000000000
0.0250000000000000
0.00400000000000000
0.0120000000000000
-0.00600000000000000
-0.0130000000000000
0.00400000000000000
0.0300000000000000
0.00900000000000000
0.0120000000000000
0.00400000000000000
-0.0110000000000000
0.00200000000000000
0.0350000000000000
0.0170000000000000
0.0270000000000000
0.0220000000000000
-0.0260000000000000
-0.0190000000000000
-0.0160000000000000
-0.0160000000000000
-0.00800000000000000
-0.0470000000000000
-0.0160000000000000
-0.00100000000000000
0.0170000000000000
0.0220000000000000
0.0400000000000000
0.0220000000000000
0.0120000000000000
0.0170000000000000
0.0150000000000000
0.0320000000000000
0.00200000000000000
-0.0310000000000000
-0.0360000000000000
0.00200000000000000
0.0200000000000000
0.0220000000000000
-0.00800000000000000
-0.0470000000000000
-0.0420000000000000
-0.0240000000000000
0.00400000000000000
-0.00300000000000000
0.0150000000000000
0.0170000000000000
0.0120000000000000
0.0170000000000000
0.0200000000000000
0.0170000000000000
0.00700000000000000
0.0170000000000000
-0.00300000000000000
-0.00600000000000000
0.0500000000000000
-0.00600000000000000
-0.0700000000000000
-0.0240000000000000
-0.00600000000000000
-0.0190000000000000
-0.0130000000000000
-0.0130000000000000
0.0120000000000000
-0.00600000000000000
-0.0210000000000000
-0.0240000000000000
-0.00300000000000000
0.0500000000000000
0.0380000000000000
0.0200000000000000
0.00400000000000000
0.0250000000000000
0.0150000000000000
0.00700000000000000
-0.00800000000000000
-0.0240000000000000
-0.0440000000000000
-0.0340000000000000
-0.0160000000000000
-0.00800000000000000
0.0250000000000000
-0.00300000000000000
0.0380000000000000
0.0450000000000000
0.00700000000000000
-0.0340000000000000
0.00200000000000000
0.00700000000000000
0.0300000000000000
0.0550000000000000
0.0350000000000000
0.0350000000000000
-0.0340000000000000
-0.00300000000000000
0.00700000000000000
0.0120000000000000
-0.0340000000000000
-0.0440000000000000
-0.0210000000000000
-0.0190000000000000
-0.00600000000000000
-0.0130000000000000
-0.00300000000000000
-0.00600000000000000
0.00400000000000000
0.0220000000000000
0.0350000000000000
0.0220000000000000
0.00900000000000000
0.0480000000000000
0.0170000000000000
0.00900000000000000
-0.00100000000000000
0.0150000000000000
-0.00800000000000000
-0.0420000000000000
-0.0210000000000000
0.0530000000000000
0.0530000000000000
-0.0770000000000000
-0.0590000000000000
-0.0360000000000000
-0.00300000000000000
0.00400000000000000
0.00700000000000000
0.00200000000000000
0.0200000000000000
0.0120000000000000
0.0150000000000000
0.0200000000000000
0.0170000000000000
0.0120000000000000
0.0150000000000000
-0.0210000000000000
-0.00300000000000000
0.00700000000000000
-0.0210000000000000
-0.0240000000000000
-0.0310000000000000
0.00900000000000000
-0.0210000000000000
-0.0770000000000000
0.0150000000000000
0.0170000000000000
0.0250000000000000
0.0120000000000000
0.0270000000000000
0.00700000000000000
0.0300000000000000
0.0380000000000000
0.00700000000000000
0.0400000000000000
0.0320000000000000
-0.0190000000000000
0.00200000000000000
0.0200000000000000
-0.0130000000000000
-0.0240000000000000
-0.0240000000000000
-0.0190000000000000
-0.0110000000000000
-0.0210000000000000
-0.00300000000000000
0.0270000000000000
0.0270000000000000
0.0250000000000000
0.0170000000000000
-0.00100000000000000
0.00400000000000000
0.0630000000000000
0.0600000000000000
0.0830000000000000
-0.0160000000000000
-0.0390000000000000
-0.0360000000000000
-0.0520000000000000
-0.0440000000000000
-0.00600000000000000
-0.00600000000000000
-0.0310000000000000
-0.00800000000000000
-0.00600000000000000
0.00400000000000000
0.0120000000000000
0.0320000000000000
0.0150000000000000
-0.00800000000000000
0.0250000000000000
0.00700000000000000
-0.00100000000000000
0.00700000000000000
0.00400000000000000
-0.00300000000000000
-0.00600000000000000
-0.00300000000000000
-0.0130000000000000
-0.0290000000000000
-0.0130000000000000
-0.0130000000000000
-0.0210000000000000
-0.0290000000000000
-0.0570000000000000
-0.0110000000000000
0.0170000000000000
0.0940000000000000
0.0480000000000000
0.00700000000000000
-0.0420000000000000
0.0150000000000000
0.0270000000000000
-0.0260000000000000
0.00700000000000000
-0.0110000000000000
0.0120000000000000
0.0270000000000000
0.0300000000000000
0.0250000000000000
0.0170000000000000
0.00200000000000000
-0.0340000000000000
-0.0240000000000000
-0.0520000000000000
-0.0160000000000000
0.0250000000000000
0.00200000000000000
-0.0130000000000000
0.0430000000000000
0.0380000000000000
0.0150000000000000
-0.0420000000000000
-0.0290000000000000
0.0630000000000000
0.0400000000000000
0.0250000000000000
-0.0210000000000000
-0.0260000000000000
-0.00100000000000000
0.0170000000000000
-0.00800000000000000
-0.00300000000000000
-0.0340000000000000
-0.0490000000000000
-0.0190000000000000
-0.00600000000000000
0.0270000000000000
0.0530000000000000
0.0600000000000000
0.0120000000000000
-0.0470000000000000
-0.0130000000000000
0.0170000000000000
0.0270000000000000
-0.00800000000000000
-0.00300000000000000
0.00200000000000000
-0.00300000000000000
-0.0340000000000000
-0.0290000000000000
-0.0210000000000000
-0.00600000000000000
0.00400000000000000
-0.0210000000000000
0.00400000000000000
0.00700000000000000
0.0250000000000000
0.0170000000000000
0.0250000000000000
0.00900000000000000
0.0200000000000000
0.0150000000000000
0.00200000000000000
0.0120000000000000
-0.0130000000000000
0.0170000000000000
-0.0290000000000000
-0.00600000000000000
-0.0240000000000000
-0.0590000000000000
-0.00600000000000000
-0.0490000000000000
-0.00300000000000000
0.00400000000000000
0.0500000000000000
-0.00100000000000000
-0.00100000000000000
0.00400000000000000
0.0380000000000000
0.0990000000000000
0.0680000000000000
0.0550000000000000
0.00400000000000000
-0.00600000000000000
-0.0240000000000000
-0.0210000000000000
-0.0240000000000000
-0.0160000000000000
-0.0540000000000000
-0.0440000000000000
-0.0260000000000000
-0.0190000000000000
-0.0290000000000000
-0.00100000000000000
-0.00300000000000000
0.0120000000000000
-0.0540000000000000
0.00200000000000000
0.0660000000000000
0.0350000000000000
0.00900000000000000
0.0380000000000000
0.0320000000000000
0.0300000000000000
0.0170000000000000
-0.00600000000000000
-0.00300000000000000
0.0120000000000000
-0.0160000000000000
-0.0360000000000000
-0.0420000000000000
-0.0190000000000000
-0.0160000000000000
-0.0210000000000000
0.00400000000000000
0.00700000000000000
0.0250000000000000
0.0220000000000000
0.0530000000000000
0.0320000000000000
0.00900000000000000
-0.00300000000000000
0.00200000000000000
0.0500000000000000
0.0350000000000000
-0.00800000000000000
-0.0390000000000000
-0.0160000000000000
-0.00800000000000000
-0.0160000000000000
-0.0310000000000000
-0.0240000000000000
-0.00800000000000000
-0.0130000000000000
0.0150000000000000
-0.00600000000000000
0.0200000000000000
0.0430000000000000
-0.00100000000000000
-0.00800000000000000
0.0350000000000000
0.00700000000000000
-0.0130000000000000
0.0400000000000000
0.0250000000000000
-0.0130000000000000
0.0430000000000000
0.0150000000000000
-0.0160000000000000
-0.0190000000000000
-0.0340000000000000
-0.0240000000000000
-0.00600000000000000
-0.0340000000000000
-0.00300000000000000
-0.00100000000000000
-0.0190000000000000
-0.00800000000000000
0.00400000000000000
0.0150000000000000
0.00200000000000000
0.0220000000000000
0.0270000000000000
0.0300000000000000
-0.00100000000000000
-0.00600000000000000
-0.0160000000000000
-0.0160000000000000
-0.0210000000000000
-0.0190000000000000
-0.0160000000000000
-0.0210000000000000
-0.0130000000000000
-0.0130000000000000
0.00400000000000000
-0.00100000000000000
0.00200000000000000
0.00900000000000000
0.0250000000000000
0.0200000000000000
0.0380000000000000
0.0380000000000000
0.0350000000000000
0.0150000000000000
0.00900000000000000
0.0350000000000000
-0.0290000000000000
-0.0190000000000000
-0.0260000000000000
-0.0190000000000000
-0.0210000000000000
-0.0260000000000000
-0.0160000000000000
0.0150000000000000
0.0480000000000000
0.00700000000000000
-0.00300000000000000
-0.00100000000000000
0.0270000000000000
0.0150000000000000
0.00200000000000000
0.0200000000000000
0.0120000000000000
0.0380000000000000
0.0150000000000000
-0.0360000000000000
-0.0440000000000000
-0.00300000000000000
-0.0130000000000000
-0.0240000000000000
-0.00800000000000000
0.0220000000000000
0.00700000000000000
-0.0340000000000000
-0.0420000000000000
-0.0160000000000000
-0.00600000000000000
-0.0130000000000000
0.0530000000000000
0.0660000000000000
0.0120000000000000
0.0380000000000000
0.0830000000000000
-0.00300000000000000
0.0120000000000000
-0.00300000000000000
-0.00600000000000000
-0.0670000000000000
-0.0620000000000000
-0.00600000000000000
0.00400000000000000
-0.0210000000000000
-0.0240000000000000
-0.0360000000000000
0.0250000000000000
-0.00100000000000000
-0.0110000000000000
0.0150000000000000
0.0380000000000000
0.0270000000000000
-0.00100000000000000
0.0530000000000000
-0.00100000000000000
0.00900000000000000
0.0170000000000000
-0.0130000000000000
-0.0290000000000000
-0.0440000000000000
-0.0260000000000000
-0.0470000000000000
-0.0190000000000000
0.00200000000000000
0.00700000000000000
0.00700000000000000
-0.00300000000000000
-0.0130000000000000
0.0350000000000000
0.0250000000000000
0.0400000000000000
0.0300000000000000
0.0380000000000000
0.0350000000000000
-0.00300000000000000
-0.0130000000000000
-0.0210000000000000
0.0170000000000000
-0.0110000000000000
-0.00800000000000000
-0.00800000000000000
-0.00600000000000000
-0.0290000000000000
-0.0340000000000000
0.00200000000000000
-0.00600000000000000
0.0200000000000000
-0.0340000000000000
0.0150000000000000
-0.00300000000000000
0.0480000000000000
0.0680000000000000
0.0170000000000000
-0.00800000000000000
0.00700000000000000
0.0480000000000000
0.0200000000000000
-0.0210000000000000
-0.00600000000000000
-0.00300000000000000
-0.00800000000000000
-0.0160000000000000
-0.0540000000000000
-0.0700000000000000
-0.0520000000000000
-0.00300000000000000
-0.00300000000000000
-0.0290000000000000
0.0150000000000000
0.0680000000000000
0.0760000000000000
0.0380000000000000
0.0120000000000000
0.00700000000000000
0.00900000000000000
0.0170000000000000
0.0170000000000000
0.00700000000000000
0.0150000000000000
-0.0260000000000000
-0.0540000000000000
-0.0340000000000000
-0.0190000000000000
-0.00300000000000000
-0.0260000000000000
-0.0130000000000000
0.0170000000000000
0.0120000000000000
0.0430000000000000
0.00900000000000000
0.0170000000000000
0.0500000000000000
0.0550000000000000
0.0120000000000000
-0.00300000000000000
-0.00600000000000000
-0.00600000000000000
0.0300000000000000
-0.0130000000000000
-0.0210000000000000
-0.0360000000000000
-0.0360000000000000
-0.0210000000000000
-0.0160000000000000
-0.0190000000000000
-0.0240000000000000
0.00700000000000000
0.0200000000000000
0.0150000000000000
0.00700000000000000
0.0250000000000000
0.0170000000000000
0.0300000000000000
0.0250000000000000
0.0170000000000000
0.00700000000000000
-0.0130000000000000
0.00700000000000000
-0.0310000000000000
-0.0390000000000000
-0.0240000000000000
-0.0110000000000000
-0.0240000000000000
0.0660000000000000
0.0450000000000000
-0.0240000000000000
0.0270000000000000
0.119000000000000
-0.0570000000000000
-0.0620000000000000
0.0200000000000000
0.0380000000000000
0.0400000000000000
-0.0340000000000000
-0.0160000000000000
0.0580000000000000
-0.0360000000000000
-0.0640000000000000
-0.00300000000000000
-0.00600000000000000
-0.0160000000000000
-0.0340000000000000
-0.0240000000000000
-0.0110000000000000
-0.0240000000000000
-0.0240000000000000
0.0170000000000000
0.0170000000000000
0.0170000000000000
0.0250000000000000
0.0200000000000000
0.0300000000000000
0.0200000000000000
0.0150000000000000
0.0250000000000000
0.0400000000000000
-0.00800000000000000
0.0380000000000000
0.00700000000000000
-0.0310000000000000
-0.0360000000000000
-0.0130000000000000
-0.0190000000000000
-0.0160000000000000
-0.0210000000000000
-0.0240000000000000
-0.00100000000000000
0.00200000000000000
0.0120000000000000
0.0250000000000000
0.0250000000000000
0.0250000000000000
0.0170000000000000
0.0170000000000000
0.0170000000000000
0.0170000000000000
0.00700000000000000
-0.00300000000000000
-0.0190000000000000
-0.0190000000000000
-0.0160000000000000
0.0170000000000000
-0.00800000000000000
-0.0260000000000000
-0.0160000000000000
-0.0160000000000000
0.00700000000000000
0.0170000000000000
0.0400000000000000
-0.0130000000000000
-0.0240000000000000
0.0380000000000000
0.0710000000000000
0.0170000000000000
0.0170000000000000
0.0220000000000000
0.0170000000000000
0.00900000000000000
0.0220000000000000
-0.0540000000000000
-0.113000000000000
-0.0540000000000000
-0.00800000000000000
-0.00300000000000000
-0.0160000000000000
-0.0470000000000000
-0.00100000000000000
0.00900000000000000
0.0430000000000000
0.0270000000000000
0.0120000000000000
0.0170000000000000
0.0150000000000000
0.0120000000000000
0.0320000000000000
-0.0110000000000000
-0.0360000000000000
-0.00800000000000000
0.00700000000000000
-0.0310000000000000
-0.0260000000000000
-0.0160000000000000
0.00700000000000000
0.0120000000000000
0.0220000000000000
-0.0260000000000000
-0.0160000000000000
-0.00600000000000000
0.0220000000000000
0.0120000000000000
0.0350000000000000
-0.00300000000000000
-0.00300000000000000
0.00900000000000000
0.0320000000000000
0.0320000000000000
0.0550000000000000
-0.00100000000000000
-0.00800000000000000
-0.0240000000000000
-0.0440000000000000
-0.00800000000000000
-0.0190000000000000
-0.0240000000000000
-0.0240000000000000
-0.0210000000000000
-0.00100000000000000
-0.00800000000000000
0.00200000000000000
0.0250000000000000
0.0450000000000000
0.109000000000000
0.127000000000000
0.0270000000000000
-0.0440000000000000
-0.0340000000000000
-0.00100000000000000
0.0940000000000000
-0.0240000000000000
-0.0570000000000000
-0.0470000000000000
-0.0240000000000000
-0.0190000000000000
-0.0240000000000000
-0.0310000000000000
-0.0240000000000000
0.00900000000000000
0.0200000000000000
0.0430000000000000
-0.0160000000000000
-0.00300000000000000
0.00900000000000000
0.0300000000000000
0.0320000000000000
0.0380000000000000
0.0170000000000000
-0.0310000000000000
0.0300000000000000
-0.0210000000000000
0.00400000000000000
0.0320000000000000
0.00700000000000000
0.00400000000000000
-0.0290000000000000
-0.0340000000000000
0.0380000000000000
-0.00300000000000000
-0.0160000000000000
-0.00300000000000000
-0.00300000000000000
0.0170000000000000
0.00700000000000000
0.0200000000000000
0.0320000000000000
0.0630000000000000
0.0430000000000000
-0.00300000000000000
-0.0130000000000000
-0.0110000000000000
-0.00800000000000000
-0.0160000000000000
-0.0240000000000000
-0.0210000000000000
-0.0130000000000000
-0.0240000000000000
-0.0210000000000000
0.0270000000000000
0.00700000000000000
-0.0310000000000000
-0.0110000000000000
0.00900000000000000
0.0250000000000000
0.0430000000000000
0.0300000000000000
0.0270000000000000
0.00700000000000000
-0.00100000000000000
0.0270000000000000
0.0890000000000000
-0.0110000000000000
-0.0670000000000000
-0.0620000000000000
-0.0640000000000000
-0.0470000000000000
-0.0490000000000000
-0.0290000000000000
0.0170000000000000
0.0250000000000000
0.0250000000000000
0.0220000000000000
0.0380000000000000
0.0660000000000000
0.0350000000000000
0.0250000000000000
0.0170000000000000
-0.00300000000000000
-0.0160000000000000
-0.0440000000000000
0.0120000000000000
0.0120000000000000
-0.0440000000000000
-0.0290000000000000
-0.0190000000000000
-0.00300000000000000
-0.0160000000000000
0.00700000000000000
-0.0110000000000000
-0.0160000000000000
-0.00100000000000000
0.0780000000000000
0.0170000000000000
-0.0160000000000000
-0.00100000000000000
0.00400000000000000
0.0270000000000000
0.0530000000000000
0.0170000000000000
0.0380000000000000
-0.00600000000000000
-0.0540000000000000
-0.0310000000000000
-0.0290000000000000
-0.0160000000000000
-0.0110000000000000
-0.00800000000000000
-0.00800000000000000
-0.00600000000000000
0.00700000000000000
-0.00100000000000000
0.0200000000000000
0.0660000000000000
0.0300000000000000
0.0300000000000000
0.00200000000000000
0.00700000000000000
0.0300000000000000
0.0860000000000000
0.0600000000000000
-0.0440000000000000
-0.0870000000000000
-0.0640000000000000
-0.0160000000000000
-0.0130000000000000
0.0250000000000000
0.0150000000000000
-0.0420000000000000
-0.0290000000000000
-0.0130000000000000
0.0200000000000000
0.0380000000000000
0.0430000000000000
-0.0160000000000000
0.0120000000000000
0.0400000000000000
0.00400000000000000
0.00400000000000000
-0.0340000000000000
0.0600000000000000
0.00900000000000000
0.00400000000000000
-0.0310000000000000
-0.0590000000000000
-0.0570000000000000
-0.00300000000000000
0.00400000000000000
-0.0130000000000000
0.00900000000000000
-0.00600000000000000
0.00700000000000000
0.0250000000000000
0.0120000000000000
0.00700000000000000
-0.00300000000000000
0.0580000000000000
0.0270000000000000
0.0150000000000000
-0.00300000000000000
-0.00300000000000000
-0.0260000000000000
-0.0490000000000000
-0.0420000000000000
-0.0110000000000000
-0.0260000000000000
-0.0130000000000000
0.00700000000000000
-0.00600000000000000
0.0660000000000000
-0.0110000000000000
-0.00300000000000000
0.00400000000000000
0.0300000000000000
0.0320000000000000
0.0320000000000000
0.00900000000000000
0.0120000000000000
-0.0130000000000000
0.00400000000000000
0.0660000000000000
0.0120000000000000
0.0120000000000000
-0.00100000000000000
0.0170000000000000
-0.00100000000000000
-0.0390000000000000
-0.0720000000000000
-0.0540000000000000
0.00400000000000000
0.0200000000000000
0.0170000000000000
0.00400000000000000
0.0250000000000000
0.0150000000000000
0.0200000000000000
0.0320000000000000
0.0380000000000000
0.0170000000000000
0.00400000000000000
-0.0160000000000000
0.00700000000000000
-0.00600000000000000
-0.0240000000000000
-0.0390000000000000
-0.0520000000000000
-0.0440000000000000
-0.0360000000000000
-0.0190000000000000
0.0400000000000000
0.0300000000000000
-0.0110000000000000
0.0170000000000000
0.0200000000000000
0.0320000000000000
0.0300000000000000
0.00400000000000000
-0.00100000000000000
0.0170000000000000
0.0250000000000000
0.0350000000000000
-0.00800000000000000
-0.0340000000000000
-0.0160000000000000
-0.0440000000000000
0.0170000000000000
0.0400000000000000
-0.0190000000000000
-0.0420000000000000
-0.0240000000000000
-0.0160000000000000
0.0170000000000000
0.0320000000000000
0.0250000000000000
0.00700000000000000
0.0170000000000000
0.0150000000000000
0.00400000000000000
-0.0160000000000000
-0.0130000000000000
-0.0110000000000000
-0.00100000000000000
-0.0110000000000000
-0.00300000000000000
0.00400000000000000
-0.0110000000000000
-0.0240000000000000
-0.0390000000000000
-0.0290000000000000
0.00900000000000000
0.0170000000000000
0.00400000000000000
0.0200000000000000
0.0350000000000000
-0.00100000000000000
0.00700000000000000
0.0270000000000000
0.0450000000000000
0.0150000000000000
-0.00800000000000000
-0.0240000000000000
-0.00600000000000000
-0.00300000000000000
0.0170000000000000
-0.0340000000000000
-0.0360000000000000
-0.0260000000000000
-0.0210000000000000
-0.00800000000000000
0.0150000000000000
-0.00600000000000000
-0.00300000000000000
0.00900000000000000
0.0450000000000000
0.0380000000000000
0.0630000000000000
0.0350000000000000
0.00400000000000000
-0.0210000000000000
0.0150000000000000
0.0150000000000000
-0.0260000000000000
-0.0340000000000000
-0.0570000000000000
-0.0240000000000000
0.0120000000000000
-0.0490000000000000
-0.0570000000000000
-0.0390000000000000
0.0350000000000000
0.00700000000000000
0.00200000000000000
0.0380000000000000
0.0350000000000000
0.0530000000000000
0.0480000000000000
-0.0160000000000000
-0.0260000000000000
-0.0520000000000000
-0.00600000000000000
0.0120000000000000
0.0170000000000000
0.0200000000000000
-0.0160000000000000
-0.0360000000000000
-0.0240000000000000
-0.0210000000000000
-0.0340000000000000
-0.0340000000000000
-0.00300000000000000
0.0300000000000000
0.0400000000000000
0.0250000000000000
0.0220000000000000
0.0320000000000000
0.0550000000000000
-0.00300000000000000
-0.0420000000000000
-0.0360000000000000
-0.00300000000000000
0.0380000000000000
0.0220000000000000
-0.0210000000000000
-0.0130000000000000
-0.0260000000000000
-0.0190000000000000
-0.00600000000000000
-0.0340000000000000
-0.0130000000000000
0.00900000000000000
0.0170000000000000
0.0150000000000000
-0.0130000000000000
0.0580000000000000
0.0580000000000000
0.0200000000000000
-0.0190000000000000
-0.0160000000000000
-0.00800000000000000
-0.0110000000000000
0.0380000000000000
0.00400000000000000
-0.0160000000000000
-0.0190000000000000
-0.0190000000000000
-0.0310000000000000
-0.0240000000000000
-0.0310000000000000
-0.0470000000000000
0.0450000000000000
0.0320000000000000
-0.00100000000000000
-0.00100000000000000
0.0250000000000000
0.0400000000000000
0.0220000000000000
-0.00800000000000000
-0.0110000000000000
0.0300000000000000
0.00700000000000000
-0.0360000000000000
-0.0390000000000000
-0.0290000000000000
-0.0160000000000000
-0.0210000000000000
-0.0240000000000000
0.0200000000000000
0.0120000000000000
0.0170000000000000
0.0660000000000000
0.0730000000000000
0.0200000000000000
-0.0210000000000000
0.00700000000000000
0.0120000000000000
0.0450000000000000
0.0960000000000000
0.0630000000000000
-0.0390000000000000
-0.0440000000000000
-0.0850000000000000
-0.0540000000000000
-0.0110000000000000
-0.00300000000000000
0.00900000000000000
0.0270000000000000
0.0380000000000000
-0.0770000000000000
-0.0570000000000000
0.0400000000000000
0.137000000000000
0.0940000000000000
0.00700000000000000
-0.0210000000000000
-0.0310000000000000
-0.0700000000000000
-0.0130000000000000
-0.0260000000000000
-0.00300000000000000
0.0320000000000000
0.0500000000000000
0.0580000000000000
-0.0440000000000000
-0.0850000000000000
-0.0260000000000000
-0.00100000000000000
-0.0260000000000000
-0.0340000000000000
-0.0470000000000000
-0.0130000000000000
0.00200000000000000
-0.0210000000000000
-0.0240000000000000
0.0170000000000000
0.0150000000000000
0.0150000000000000
-0.0340000000000000
-0.110000000000000
-0.0950000000000000
0.0680000000000000
0.111000000000000
0.0680000000000000
-0.0240000000000000
0.0150000000000000
-0.0570000000000000
-0.0190000000000000
-0.00600000000000000
-0.0290000000000000
-0.105000000000000
-0.0850000000000000
-0.0210000000000000
0.119000000000000
0.0860000000000000
0.124000000000000
0.0780000000000000
-0.0190000000000000
-0.0850000000000000
-0.0360000000000000
0.0580000000000000
-0.0750000000000000
0.0170000000000000
0.0860000000000000
-0.0240000000000000
-0.0750000000000000
-0.0440000000000000
-0.00800000000000000
-0.0620000000000000
-0.0360000000000000
0.0910000000000000
-0.00300000000000000
0.106000000000000
0.101000000000000
0.150000000000000
0.0940000000000000
-0.0720000000000000
-0.0930000000000000
-0.0340000000000000
0.0600000000000000
0.0990000000000000
0.132000000000000
-0.0800000000000000
-0.138000000000000
0.0120000000000000
0.190000000000000
-0.123000000000000
-0.215000000000000
-0.187000000000000
-0.169000000000000
-0.0470000000000000
0.0120000000000000
0.104000000000000
-0.0340000000000000
-0.0160000000000000
0.0250000000000000
0.0580000000000000
-0.169000000000000
-0.110000000000000
0.124000000000000
0.183000000000000
0.0530000000000000
-0.00100000000000000
0.139000000000000
0.0780000000000000
-0.115000000000000
-0.126000000000000
-0.0160000000000000
-0.0390000000000000
-0.0900000000000000
-0.0850000000000000
-0.0950000000000000
0.147000000000000
0.117000000000000
-0.0490000000000000
0.00700000000000000
0.0730000000000000
0.0940000000000000
-0.0190000000000000
0.234000000000000
0.257000000000000
0.122000000000000
-0.187000000000000
-0.105000000000000
0.0300000000000000
0.00700000000000000
-0.0130000000000000
-0.0260000000000000
0.0550000000000000
0.178000000000000
0.0600000000000000
-0.0420000000000000
-0.174000000000000
-0.0340000000000000
0.0760000000000000
-0.0110000000000000
-0.0850000000000000
-0.0980000000000000
-0.0130000000000000
-0.0310000000000000
0.127000000000000
0.104000000000000
-0.0520000000000000
-0.100000000000000
0.0270000000000000
-0.0670000000000000
-0.118000000000000
0.0350000000000000
0.129000000000000
0.00900000000000000
-0.123000000000000
-0.00300000000000000
0.00900000000000000
0.0580000000000000
0.0990000000000000
0.0250000000000000
-0.0700000000000000
-0.149000000000000
-0.0590000000000000
0.155000000000000
0.236000000000000
0.0730000000000000
0.00700000000000000
0.185000000000000
-0.108000000000000
-0.261000000000000
-0.138000000000000
-0.286000000000000
-0.108000000000000
0.0380000000000000
-0.103000000000000
-0.0640000000000000
0.257000000000000
0.282000000000000
0.0630000000000000
0.0810000000000000
0.129000000000000
-0.164000000000000
-0.212000000000000
-0.115000000000000
0.382000000000000
0.290000000000000
0.0120000000000000
0.0680000000000000
-0.0670000000000000
-0.0390000000000000
-0.166000000000000
-0.355000000000000
-0.169000000000000
0.0480000000000000
0.0320000000000000
0.0890000000000000
0.180000000000000
0.152000000000000
0.137000000000000
0.0890000000000000
0.00400000000000000
0.0730000000000000
0.0380000000000000
0.00900000000000000
-0.138000000000000
0.168000000000000
0.117000000000000
-0.169000000000000
-0.0240000000000000
0.0960000000000000
-0.0440000000000000
-0.128000000000000
-0.105000000000000
-0.128000000000000
0.213000000000000
0.0890000000000000
-0.0720000000000000
-0.220000000000000
-0.115000000000000
0.359000000000000
-0.0310000000000000
-0.179000000000000
0.0660000000000000
0.0250000000000000
-0.0420000000000000
-0.105000000000000
-0.0470000000000000
0.0600000000000000
0.147000000000000
-0.138000000000000
-0.0340000000000000
0.264000000000000
0.00700000000000000
-0.0850000000000000
0.134000000000000
0.0380000000000000
0.259000000000000
-0.0130000000000000
-0.253000000000000
-0.398000000000000
-0.284000000000000
0.234000000000000
0.336000000000000
0.170000000000000
0.211000000000000
0.119000000000000
0.117000000000000
-0.0290000000000000
-0.115000000000000
0.155000000000000
0.377000000000000
0.157000000000000
-0.353000000000000
-0.523000000000000
-0.258000000000000
0.0480000000000000
0.0120000000000000
-0.0260000000000000
-0.108000000000000
-0.113000000000000
-0.105000000000000
0.0960000000000000
0.173000000000000
0.129000000000000
0.0810000000000000
0.234000000000000
0.183000000000000
0.224000000000000
-0.0160000000000000
-0.0470000000000000
-0.143000000000000
-0.0820000000000000
0.0600000000000000
-0.0820000000000000
-0.0640000000000000
-0.0490000000000000
-0.138000000000000
-0.118000000000000
-0.00800000000000000
0.193000000000000
0.0990000000000000
0.101000000000000
-0.0850000000000000
-0.192000000000000
-0.197000000000000
0.134000000000000
0.0710000000000000
0.336000000000000
0.530000000000000
0.0890000000000000
0.0780000000000000
-0.347000000000000
-0.0750000000000000
-0.0590000000000000
-0.105000000000000
-0.0800000000000000
-0.105000000000000
0.0150000000000000
-0.0850000000000000
0.0630000000000000
0.142000000000000
0.150000000000000
0.137000000000000
0.185000000000000
0.231000000000000
-0.149000000000000
-0.0640000000000000
0.211000000000000
-0.0870000000000000
-0.115000000000000
-0.304000000000000
-0.166000000000000
-0.108000000000000
-0.133000000000000
-0.146000000000000
-0.0110000000000000
0.198000000000000
-0.0130000000000000
-0.138000000000000
-0.0540000000000000
0.165000000000000
0.139000000000000
-0.0640000000000000
0.0780000000000000
0.117000000000000
0.0860000000000000
0.183000000000000
-0.0360000000000000
-0.172000000000000
-0.154000000000000
-0.0800000000000000
0.0380000000000000
0.236000000000000
0.147000000000000
0.00700000000000000
-0.100000000000000
-0.0590000000000000
-0.161000000000000
0.0400000000000000
0.0680000000000000
-0.358000000000000
-0.146000000000000
-0.0210000000000000
-0.0210000000000000
-0.0520000000000000
0.139000000000000
0.303000000000000
0.282000000000000
-0.182000000000000
-0.166000000000000
-0.146000000000000
0.0380000000000000
-0.0670000000000000
0.0680000000000000
0.0580000000000000
0.145000000000000
0.109000000000000
0.104000000000000
0.285000000000000
0.101000000000000
-0.217000000000000
-0.0700000000000000
0.0450000000000000
-0.131000000000000
0.00400000000000000
0.0400000000000000
0.0380000000000000
-0.0390000000000000
0.0760000000000000
-0.0540000000000000
-0.205000000000000
-0.223000000000000
0.00200000000000000
0.101000000000000
0.180000000000000
-0.233000000000000
-0.368000000000000
0.0890000000000000
0.435000000000000
0.0580000000000000
-0.189000000000000
-0.0540000000000000
-0.0420000000000000
0.0380000000000000
0.188000000000000
0.0890000000000000
-0.128000000000000
0.165000000000000
-0.00300000000000000
-0.238000000000000
-0.161000000000000
0.0860000000000000
0.139000000000000
-0.121000000000000
-0.0290000000000000
0.0600000000000000
-0.0620000000000000
0.0600000000000000
0.137000000000000
0.124000000000000
0.241000000000000
0.0200000000000000
-0.286000000000000
0.0480000000000000
0.0680000000000000
-0.0440000000000000
-0.00100000000000000
-0.0670000000000000
0.0320000000000000
-0.0540000000000000
0.211000000000000
0.165000000000000
-0.0540000000000000
-0.141000000000000
0.0780000000000000
-0.0160000000000000
-0.156000000000000
-0.0900000000000000
-0.0620000000000000
-0.0670000000000000
0.0320000000000000
0.244000000000000
0.448000000000000
0.00700000000000000
-0.223000000000000
0.0450000000000000
-0.304000000000000
-0.0820000000000000
-0.00800000000000000
-0.0240000000000000
0.0910000000000000
-0.0290000000000000
0.0250000000000000
0.129000000000000
0.0910000000000000
0.216000000000000
0.0600000000000000
-0.330000000000000
-0.182000000000000
-0.0130000000000000
0.211000000000000
0.0600000000000000
-0.115000000000000
-0.0540000000000000
-0.0720000000000000
-0.0520000000000000
0.252000000000000
-0.136000000000000
0.0530000000000000
0.280000000000000
0.0480000000000000
-0.248000000000000
-0.156000000000000
0.00700000000000000
0.0150000000000000
0.132000000000000
-0.166000000000000
-0.0240000000000000
0.0400000000000000
0.0860000000000000
0.0730000000000000
-0.0750000000000000
-0.0750000000000000
-0.00600000000000000
0.0550000000000000
0.150000000000000
-0.184000000000000
-0.0360000000000000
0.0550000000000000
0.150000000000000
-0.0440000000000000
-0.0800000000000000
-0.115000000000000
0.104000000000000
0.0170000000000000
0.244000000000000
-0.0700000000000000
-0.0190000000000000
0.0730000000000000
-0.136000000000000
0.00700000000000000
0.196000000000000
0.175000000000000
0.170000000000000
-0.189000000000000
-0.126000000000000
-0.128000000000000
-0.0570000000000000
0.00400000000000000
-0.0750000000000000
-0.00100000000000000
0.0830000000000000
-0.00300000000000000
-0.0470000000000000
-0.128000000000000
-0.146000000000000
0.0550000000000000
0.203000000000000
0.0170000000000000
-0.154000000000000
0.0910000000000000
0.0500000000000000
-0.0260000000000000
0.252000000000000
0.257000000000000
-0.00300000000000000
-0.217000000000000
-0.00300000000000000
-0.0490000000000000
-0.0260000000000000
-0.0440000000000000
0.00900000000000000
-0.0210000000000000
-0.156000000000000
-0.0800000000000000
0.0170000000000000
0.134000000000000
0.219000000000000
0.247000000000000
-0.128000000000000
-0.136000000000000
-0.108000000000000
0.0220000000000000
0.0320000000000000
0.104000000000000
-0.0800000000000000
-0.0240000000000000
0.0680000000000000
0.190000000000000
-0.154000000000000
-0.169000000000000
0.0580000000000000
0.264000000000000
-0.0210000000000000
-0.248000000000000
0.00900000000000000
0.213000000000000
-0.0340000000000000
-0.0340000000000000
-0.0240000000000000
-0.0900000000000000
-0.0640000000000000
0.216000000000000
0.0660000000000000
0.0660000000000000
0.0380000000000000
0.0320000000000000
0.216000000000000
-0.286000000000000
-0.299000000000000
-0.108000000000000
-0.113000000000000
-0.146000000000000
-0.0160000000000000
0.338000000000000
0.00700000000000000
-0.327000000000000
0.0890000000000000
0.0580000000000000
0.298000000000000
-0.00600000000000000
-0.223000000000000
-0.230000000000000
0.190000000000000
0.425000000000000
-0.210000000000000
0.0150000000000000
-0.00800000000000000
0.0730000000000000
-0.128000000000000
0.0660000000000000
0.150000000000000
0.0530000000000000
-0.299000000000000
-0.194000000000000
-0.100000000000000
0.0660000000000000
0.0170000000000000
-0.0590000000000000
-0.0980000000000000
0.0580000000000000
0.313000000000000
0.201000000000000
-0.0870000000000000
-0.108000000000000
-0.0420000000000000
0.00900000000000000
-0.0820000000000000
0.0350000000000000
0.203000000000000
-0.0240000000000000
-0.00800000000000000
0.183000000000000
-0.161000000000000
-0.166000000000000
-0.228000000000000
-0.0950000000000000
0.0730000000000000
0.203000000000000
0.558000000000000
0.211000000000000
-0.319000000000000
-0.123000000000000
-0.141000000000000
-0.131000000000000
0.114000000000000
0.247000000000000
0.175000000000000
-0.340000000000000
-0.215000000000000
0.0150000000000000
-0.164000000000000
-0.118000000000000
-0.108000000000000
-0.0290000000000000
0.0730000000000000
0.0380000000000000
-0.0340000000000000
-0.0440000000000000
0.147000000000000
0.323000000000000
-0.0390000000000000
-0.187000000000000
-0.0520000000000000
0.0350000000000000
0.0760000000000000
0.124000000000000
-0.0190000000000000
0.0270000000000000
-0.220000000000000
0.0630000000000000
0.155000000000000
0.264000000000000
-0.126000000000000
-0.0210000000000000
0.119000000000000
-0.205000000000000
0.00900000000000000
-0.156000000000000
-0.0470000000000000
0.0170000000000000
0.0270000000000000
0.0270000000000000
0.0300000000000000
-0.156000000000000
0.188000000000000
0.504000000000000
-0.0870000000000000
-0.268000000000000
-0.187000000000000
-0.146000000000000
0.0320000000000000
-0.0240000000000000
0.104000000000000
0.252000000000000
-0.166000000000000
-0.0420000000000000
0.162000000000000
-0.0340000000000000
-0.0850000000000000
-0.00600000000000000
0.0320000000000000
0.109000000000000
-0.0260000000000000
0.371000000000000
0.150000000000000
-0.149000000000000
-0.0360000000000000
-0.235000000000000
-0.0950000000000000
0.150000000000000
0.129000000000000
-0.205000000000000
-0.169000000000000
-0.0770000000000000
-0.0700000000000000
0.104000000000000
0.229000000000000
0.109000000000000
-0.00100000000000000
-0.192000000000000
-0.0750000000000000
0.0480000000000000
0.106000000000000
0.111000000000000
0.0480000000000000
-0.0750000000000000
-0.103000000000000
-0.161000000000000
0.124000000000000
0.160000000000000
-0.00800000000000000
0.104000000000000
-0.121000000000000
-0.115000000000000
0.0170000000000000
-0.0440000000000000
-0.00100000000000000
0.0990000000000000
-0.00100000000000000
0.127000000000000
-0.248000000000000
-0.121000000000000
0.203000000000000
-0.0110000000000000
-0.0360000000000000
0.0500000000000000
-0.0360000000000000
0.00400000000000000
0.00700000000000000
-0.00300000000000000
0.0250000000000000
0.0990000000000000
0.00700000000000000
0.0380000000000000
0.0600000000000000
-0.00600000000000000
0.124000000000000
-0.0590000000000000
0.0500000000000000
-0.0440000000000000
-0.215000000000000
-0.0900000000000000
0.0810000000000000
0.111000000000000
0.0680000000000000
0.00700000000000000
-0.0640000000000000
-0.0950000000000000
-0.0850000000000000
-0.0720000000000000
0.0220000000000000
0.0730000000000000
0.0120000000000000
-0.0850000000000000
-0.00600000000000000
0.239000000000000
-0.0490000000000000
-0.154000000000000
-0.0290000000000000
0.132000000000000
0.0320000000000000
0.0170000000000000
-0.0820000000000000
-0.0130000000000000
0.0760000000000000
0.178000000000000
-0.126000000000000
-0.105000000000000
0.241000000000000
0.0660000000000000
-0.174000000000000
-0.0490000000000000
-0.00800000000000000
0.114000000000000
-0.274000000000000
-0.169000000000000
0.170000000000000
0.0630000000000000
0.0150000000000000
0.0430000000000000
-0.118000000000000
-0.126000000000000
0.155000000000000
-0.0490000000000000
0.170000000000000
0.183000000000000
-0.174000000000000
-0.126000000000000
-0.0720000000000000
0.147000000000000
-0.0240000000000000
-0.0750000000000000
-0.0750000000000000
-0.0210000000000000
0.160000000000000
-0.156000000000000
0.0250000000000000
0.122000000000000
0.0120000000000000
0.0350000000000000
0.150000000000000
-0.0930000000000000
-0.0820000000000000
0.0760000000000000
-0.0670000000000000
0.0500000000000000
0.326000000000000
-0.0340000000000000
-0.202000000000000
-0.200000000000000
-0.0570000000000000
0.142000000000000
0.208000000000000
-0.391000000000000
-0.207000000000000
0.226000000000000
0.272000000000000
0.134000000000000
0.139000000000000
-0.0870000000000000
-0.286000000000000
-0.0340000000000000
-0.0240000000000000
-0.0770000000000000
-0.189000000000000
-0.00100000000000000
-0.0640000000000000
0.0150000000000000
0.119000000000000
-0.212000000000000
-0.256000000000000
0.165000000000000
0.170000000000000
0.0780000000000000
-0.172000000000000
0.183000000000000
0.0910000000000000
0.00200000000000000
0.0480000000000000
-0.0440000000000000
0.0630000000000000
0.0990000000000000
0.0730000000000000
0.0270000000000000
-0.0290000000000000
0.119000000000000
0.122000000000000
-0.0520000000000000
-0.115000000000000
-0.202000000000000
-0.138000000000000
0.0350000000000000
0.0500000000000000
0.277000000000000
0.0860000000000000
-0.353000000000000
0.0530000000000000
0.211000000000000
-0.228000000000000
-0.0640000000000000
0.117000000000000
0.0400000000000000
-0.0540000000000000
-0.0590000000000000
0.0830000000000000
-0.0800000000000000
-0.0770000000000000
-0.0340000000000000
-0.0340000000000000
0.0200000000000000
-0.0540000000000000
-0.0360000000000000
0.0170000000000000
-0.0540000000000000
0.00400000000000000
-0.00300000000000000
-0.0110000000000000
0.190000000000000
-0.0340000000000000
0.0660000000000000
0.183000000000000
-0.0900000000000000
-0.100000000000000
-0.0520000000000000
0.147000000000000
0.221000000000000
-0.0750000000000000
0.0550000000000000
-0.0750000000000000
-0.100000000000000
-0.00800000000000000
-0.0870000000000000
-0.0640000000000000
-0.0160000000000000
-0.108000000000000
-0.00300000000000000
0.117000000000000
0.326000000000000
0.259000000000000
-0.0210000000000000
-0.0440000000000000
-0.0470000000000000
0.114000000000000
-0.0190000000000000
-0.0640000000000000
-0.388000000000000
-0.391000000000000
-0.0980000000000000
-0.00300000000000000
0.119000000000000
0.0350000000000000
0.00400000000000000
0.0660000000000000
0.106000000000000
0.267000000000000
0.0680000000000000
-0.261000000000000
-0.179000000000000
0.0350000000000000
0.0810000000000000
0.155000000000000
0.0530000000000000
0.0270000000000000
0.00400000000000000
0.0200000000000000
-0.0750000000000000
0.349000000000000
-0.0770000000000000
-0.238000000000000
-0.0700000000000000
-0.0590000000000000
0.0300000000000000
0.00700000000000000
0.00700000000000000
-0.0260000000000000
-0.0820000000000000
0.0120000000000000
-0.00100000000000000
0.147000000000000
0.00400000000000000
-0.156000000000000
0.0430000000000000
0.0250000000000000
-0.0930000000000000
-0.0420000000000000
0.162000000000000
0.0480000000000000
-0.123000000000000
-0.0260000000000000
0.0320000000000000
0.0400000000000000
-0.0570000000000000
0.00700000000000000
-0.0290000000000000
-0.118000000000000
0.0120000000000000
0.0600000000000000
0.323000000000000
0.0660000000000000
-0.131000000000000
-0.0340000000000000
-0.0110000000000000
-0.0290000000000000
-0.00300000000000000
-0.128000000000000
-0.0240000000000000
0.157000000000000
0.0860000000000000
-0.105000000000000
-0.118000000000000
0.0600000000000000
0.0550000000000000
0.241000000000000
0.481000000000000
0.0810000000000000
-0.388000000000000
-0.294000000000000
-0.156000000000000
-0.159000000000000
-0.0340000000000000
0.165000000000000
0.106000000000000
0.0990000000000000
-0.113000000000000
0.145000000000000
0.165000000000000
-0.0240000000000000
-0.115000000000000
-0.143000000000000
0.0600000000000000
0.0430000000000000
0.106000000000000
-0.126000000000000
-0.332000000000000
0.0150000000000000
0.139000000000000
-0.0950000000000000
0.0780000000000000
-0.0240000000000000
-0.0160000000000000
0.0580000000000000
-0.0490000000000000
-0.0210000000000000
0.0940000000000000
0.0730000000000000
0.160000000000000
-0.108000000000000
-0.177000000000000
0.0380000000000000
-0.0160000000000000
-0.108000000000000
-0.0640000000000000
-0.00100000000000000
-0.0520000000000000
0.00400000000000000
0.117000000000000
0.152000000000000
0.165000000000000
-0.00300000000000000
-0.205000000000000
-0.108000000000000
0.0270000000000000
0.0810000000000000
-0.0620000000000000
-0.00600000000000000
0.0480000000000000
0.211000000000000
0.203000000000000
-0.105000000000000
-0.286000000000000
-0.172000000000000
0.0480000000000000
-0.0160000000000000
-0.0540000000000000
-0.0440000000000000
0.124000000000000
0.190000000000000
-0.0420000000000000
0.129000000000000
-0.0190000000000000
-0.0540000000000000
0.155000000000000
0.0710000000000000
0.0150000000000000
0.134000000000000
-0.0930000000000000
-0.245000000000000
-0.184000000000000
0.00900000000000000
0.00200000000000000
-0.0620000000000000
-0.128000000000000
0.0990000000000000
0.0320000000000000
-0.0850000000000000
0.160000000000000
-0.0470000000000000
0.0380000000000000
0.0300000000000000
-0.0520000000000000
0.162000000000000
0.180000000000000
-0.0700000000000000
-0.0640000000000000
0.119000000000000
0.0530000000000000
-0.177000000000000
-0.0800000000000000
-0.0310000000000000
-0.118000000000000
-0.0490000000000000
0.0890000000000000
0.0170000000000000
0.00400000000000000
0.0430000000000000
0.262000000000000
0.170000000000000
-0.345000000000000
-0.251000000000000
-0.0670000000000000
0.00200000000000000
-0.00100000000000000
0.0250000000000000
0.122000000000000
-0.0130000000000000
-0.0290000000000000
0.109000000000000
0.270000000000000
-0.0520000000000000
-0.233000000000000
0.0990000000000000
0.0150000000000000
-0.184000000000000
-0.0770000000000000
-0.0420000000000000
-0.0670000000000000
-0.0520000000000000
0.111000000000000
0.0530000000000000
0.157000000000000
-0.0540000000000000
-0.100000000000000
-0.00800000000000000
0.0780000000000000
0.132000000000000
-0.0240000000000000
0.00400000000000000
0.0450000000000000
-0.0750000000000000
0.0120000000000000
-0.143000000000000
-0.0240000000000000
0.145000000000000
0.104000000000000
-0.0670000000000000
-0.0670000000000000
0.0400000000000000
0.129000000000000
-0.00600000000000000
-0.154000000000000
0.127000000000000
0.196000000000000
0.0480000000000000
-0.0870000000000000
-0.0590000000000000
0.0910000000000000
-0.184000000000000
-0.0390000000000000
0.139000000000000
0.0450000000000000
-0.0570000000000000
-0.172000000000000
-0.0670000000000000
-0.103000000000000
-0.0440000000000000
0.0380000000000000
-0.00100000000000000
0.0150000000000000
0.0480000000000000
-0.0440000000000000
-0.251000000000000
-0.0440000000000000
0.142000000000000
0.101000000000000
0.117000000000000
0.0170000000000000
-0.00300000000000000
-0.0470000000000000
-0.0470000000000000
-0.0750000000000000
-0.128000000000000
-0.0820000000000000
0.0600000000000000
-0.0720000000000000
0.239000000000000
0.249000000000000
0.0990000000000000
0.0500000000000000
-0.194000000000000
-0.179000000000000
-0.0340000000000000
0.0600000000000000
0.104000000000000
0.0680000000000000
-0.0260000000000000
-0.0930000000000000
0.244000000000000
0.142000000000000
-0.337000000000000
-0.0820000000000000
0.134000000000000
-0.115000000000000
-0.0820000000000000
0.208000000000000
-0.00800000000000000
-0.238000000000000
0.0250000000000000
0.224000000000000
-0.0210000000000000
0.0250000000000000
0.0550000000000000
-0.0290000000000000
-0.138000000000000
-0.0620000000000000
0.0990000000000000
0.0200000000000000
-0.0440000000000000
-0.0190000000000000
0.0480000000000000
-0.0260000000000000
0.0170000000000000
0.0550000000000000
-0.0800000000000000
0.0450000000000000
-0.184000000000000
-0.0980000000000000
-0.0390000000000000
-0.0520000000000000
0.0220000000000000
0.0170000000000000
0.109000000000000
0.173000000000000
0.328000000000000
-0.0340000000000000
0.00700000000000000
-0.146000000000000
-0.149000000000000
-0.0640000000000000
0.0430000000000000
-0.0240000000000000
-0.0160000000000000
-0.115000000000000
-0.0820000000000000
0.157000000000000
0.379000000000000
0.0170000000000000
-0.159000000000000
-0.0110000000000000
0.0580000000000000
-0.166000000000000
-0.0930000000000000
-0.0110000000000000
-0.0210000000000000
0.0990000000000000
0.0600000000000000
-0.103000000000000
-0.0470000000000000
0.0500000000000000
-0.0640000000000000
-0.0290000000000000
0.252000000000000
0.0830000000000000
-0.0870000000000000
-0.258000000000000
-0.0240000000000000
-0.103000000000000
0.0890000000000000
0.0940000000000000
0.213000000000000
0.0250000000000000
-0.177000000000000
-0.00100000000000000
0.190000000000000
0.226000000000000
0.0600000000000000
-0.00800000000000000
0.0780000000000000
-0.0930000000000000
-0.202000000000000
0.0270000000000000
-0.0850000000000000
-0.235000000000000
-0.0190000000000000
0.196000000000000
-0.166000000000000
-0.00300000000000000
-0.00300000000000000
0.0830000000000000
0.0480000000000000
-0.131000000000000
0.119000000000000
0.0940000000000000
-0.0340000000000000
-0.0190000000000000
0.0680000000000000
0.145000000000000
0.0890000000000000
-0.166000000000000
-0.131000000000000
-0.0420000000000000
-0.0240000000000000
-0.0260000000000000
-0.0240000000000000
0.0380000000000000
0.0400000000000000
0.0580000000000000
0.0500000000000000
-0.00800000000000000
-0.0360000000000000
0.0250000000000000
0.0380000000000000
0.109000000000000
0.0270000000000000
-0.0770000000000000
0.0960000000000000
0.0350000000000000
-0.00300000000000000
-0.0980000000000000
0.0150000000000000
-0.0260000000000000
-0.0420000000000000
-0.0340000000000000
-0.0570000000000000
-0.0130000000000000
-0.0490000000000000
0.0270000000000000
0.0890000000000000
0.0890000000000000
-0.0420000000000000
-0.0260000000000000
0.00700000000000000
0.00900000000000000
0.0500000000000000
0.0630000000000000
0.0660000000000000
-0.0130000000000000
-0.100000000000000
-0.0310000000000000
-0.00300000000000000
-0.0420000000000000
0.0150000000000000
0.0150000000000000
-0.0620000000000000
0.0270000000000000
-0.0470000000000000
-0.0260000000000000
-0.0210000000000000
0.0170000000000000
-0.0130000000000000
-0.00600000000000000
0.0780000000000000
0.114000000000000
-0.0130000000000000
-0.0360000000000000
0.0810000000000000
0.0600000000000000
-0.0440000000000000
-0.0570000000000000
0.0580000000000000
0.0830000000000000
-0.0850000000000000
-0.113000000000000
-0.110000000000000
-0.0800000000000000
-0.0420000000000000
-0.0570000000000000
-0.0240000000000000
0.0780000000000000
0.0500000000000000
0.0860000000000000
0.0580000000000000
-0.0190000000000000
0.0450000000000000
0.252000000000000
-0.0640000000000000
-0.115000000000000
-0.0440000000000000
-0.0340000000000000
-0.0240000000000000
-0.0390000000000000
-0.0210000000000000
-0.0540000000000000
-0.0540000000000000
-0.0640000000000000
-0.0290000000000000
0.0250000000000000
0.0430000000000000
0.0550000000000000
-0.0130000000000000
0.00200000000000000
0.0120000000000000
0.0250000000000000
0.0120000000000000
0.00200000000000000
0.00200000000000000
0.0250000000000000
0.0150000000000000
-0.00800000000000000
-0.0340000000000000
-0.0290000000000000
0.0380000000000000
0.0300000000000000
-0.0490000000000000
-0.0240000000000000
0.00400000000000000
-0.0620000000000000
-0.00800000000000000
0.00400000000000000
0.0170000000000000
0.0220000000000000
-0.00100000000000000
0.0350000000000000
0.0500000000000000
0.0480000000000000
0.0380000000000000
0.0320000000000000
0.0660000000000000
0.0960000000000000
0.124000000000000
0.0730000000000000
-0.108000000000000
-0.179000000000000
-0.121000000000000
-0.0720000000000000
-0.0340000000000000
-0.00300000000000000
-0.0290000000000000
-0.0240000000000000
0.00700000000000000
-0.0210000000000000
0.0630000000000000
0.0990000000000000
-0.0340000000000000
0.0480000000000000
0.122000000000000
-0.0540000000000000
-0.0540000000000000
-0.0390000000000000
0.00200000000000000
-0.0340000000000000
-0.0800000000000000
-0.00600000000000000
0.0250000000000000
-0.0670000000000000
-0.0420000000000000
-0.00300000000000000
-0.0340000000000000
-0.0340000000000000
0.0830000000000000
0.0780000000000000
-0.00600000000000000
-0.0490000000000000
-0.00600000000000000
0.00700000000000000
0.0480000000000000
0.0220000000000000
0.0430000000000000
0.0400000000000000
0.0270000000000000
-0.0700000000000000
-0.0440000000000000
-0.00100000000000000
-0.0470000000000000
-0.0470000000000000
-0.0390000000000000
0.0380000000000000
0.0530000000000000
0.00400000000000000
-0.00300000000000000
0.00200000000000000
-0.00300000000000000
0.0170000000000000
0.0300000000000000
0.0220000000000000
0.0450000000000000
0.0730000000000000
0.00900000000000000
0.00700000000000000
-0.0130000000000000
-0.0470000000000000
-0.0670000000000000
-0.0240000000000000
-0.0310000000000000
-0.0620000000000000
0.0170000000000000
0.0810000000000000
-0.00100000000000000
0.0220000000000000
0.0270000000000000
0.0600000000000000
0.0580000000000000
0.0250000000000000
0.0200000000000000
0.0120000000000000
0.00900000000000000
-0.00600000000000000
-0.0160000000000000
-0.0160000000000000
-0.0210000000000000
-0.0340000000000000
-0.0110000000000000
-0.0160000000000000
-0.0570000000000000
-0.0490000000000000
-0.0160000000000000
0.0780000000000000
0.142000000000000
0.0660000000000000
-0.105000000000000
-0.0340000000000000
0.0780000000000000
0.0250000000000000
-0.0390000000000000
-0.0260000000000000
0.00700000000000000
0.0350000000000000
0.0300000000000000
-0.0190000000000000
0.0250000000000000
-0.0590000000000000
-0.0540000000000000
-0.0420000000000000
-0.0340000000000000
-0.0440000000000000
-0.0750000000000000
-0.0260000000000000
-0.00300000000000000
0.0120000000000000
0.0400000000000000
0.0200000000000000
-0.0130000000000000
-0.00100000000000000
0.00700000000000000
0.0450000000000000
0.0430000000000000
0.0200000000000000
0.0910000000000000
-0.00300000000000000
0.00700000000000000
-0.00800000000000000
0.00700000000000000
0.0170000000000000
-0.00800000000000000
-0.0440000000000000
-0.0570000000000000
-0.0210000000000000
-0.0130000000000000
0.00900000000000000
0.0430000000000000
0.0450000000000000
0.0120000000000000
-0.0110000000000000
-0.00100000000000000
0.0200000000000000
-0.00100000000000000
-0.0310000000000000
-0.0390000000000000
-0.0130000000000000
-0.0130000000000000
-0.00100000000000000
0.00400000000000000
-0.0490000000000000
-0.0470000000000000
0.0270000000000000
0.0350000000000000
-0.00100000000000000
-0.0240000000000000
0.00200000000000000
0.0250000000000000
0.0170000000000000
0.0250000000000000
0.0170000000000000
-0.0110000000000000
0.00200000000000000
0.0270000000000000
0.00700000000000000
-0.0130000000000000
-0.0130000000000000
-0.0160000000000000
-0.0240000000000000
-0.0290000000000000
-0.0130000000000000
0.124000000000000
0.0550000000000000
-0.0340000000000000
-0.0820000000000000
-0.0700000000000000
-0.0210000000000000
0.00700000000000000
-0.00300000000000000
-0.00600000000000000
0.0250000000000000
0.0250000000000000
0.0170000000000000
0.0430000000000000
0.0530000000000000
-0.0160000000000000
-0.0310000000000000
-0.0360000000000000
-0.0290000000000000
-0.0340000000000000
-0.0260000000000000
-0.0210000000000000
-0.0160000000000000
-0.0260000000000000
0.0120000000000000
0.00400000000000000
0.00700000000000000
0.0220000000000000
0.0200000000000000
0.0150000000000000
0.0150000000000000
0.0170000000000000
0.0250000000000000
-0.00100000000000000
-0.00600000000000000
-0.0110000000000000
-0.0210000000000000
-0.0210000000000000
-0.0310000000000000
-0.0160000000000000
-0.0130000000000000
-0.0190000000000000
-0.0240000000000000
-0.0340000000000000
-0.0210000000000000
0.00400000000000000
0.0220000000000000
0.0170000000000000
0.0350000000000000
0.0200000000000000
0.00900000000000000
-0.00300000000000000
0.00900000000000000
0.00700000000000000
-0.00600000000000000
0.0220000000000000
0.0320000000000000
0.0150000000000000
-0.0310000000000000
-0.0290000000000000
-0.0340000000000000
-0.0360000000000000
-0.0490000000000000
-0.0260000000000000
0.0220000000000000
0.0150000000000000
0.00400000000000000
-0.0240000000000000
0.00400000000000000
-0.00300000000000000
0.00200000000000000
0.0320000000000000
0.0580000000000000
0.0350000000000000
0.0480000000000000
0.00400000000000000
-0.00800000000000000
-0.0130000000000000
-0.0310000000000000
-0.0340000000000000
-0.0340000000000000
-0.0290000000000000
0.00200000000000000
-0.0240000000000000
-0.0210000000000000
0.00400000000000000
0.0200000000000000
0.0220000000000000
0.0250000000000000
0.0150000000000000
0.00900000000000000
0.0170000000000000
0.0250000000000000
-0.00100000000000000
0.0150000000000000
0.0120000000000000
-0.00800000000000000
-0.0570000000000000
-0.0540000000000000
-0.0340000000000000
-0.0390000000000000
-0.0260000000000000
-0.0310000000000000
-0.0390000000000000
-0.00100000000000000
0.0150000000000000
0.00400000000000000
0.0220000000000000
0.0480000000000000
0.0220000000000000
0.0150000000000000
0.0220000000000000
0.0120000000000000
0.00900000000000000
-0.00100000000000000
-0.0160000000000000
-0.0310000000000000
0.00700000000000000
0.0200000000000000
-0.0340000000000000
-0.0340000000000000
-0.0290000000000000
-0.0160000000000000
-0.00600000000000000
-0.0190000000000000
-0.0130000000000000
0.0400000000000000
0.0170000000000000
0.00400000000000000
-0.00300000000000000
0.00700000000000000
0.0120000000000000
0.00700000000000000
-0.00300000000000000
-0.00100000000000000
-0.00300000000000000
-0.00800000000000000
-0.0240000000000000
-0.0310000000000000
-0.0390000000000000
-0.0520000000000000
-0.0440000000000000
-0.0340000000000000
-0.0310000000000000
0.00400000000000000
0.0250000000000000
0.0300000000000000
0.0200000000000000
0.0200000000000000
0.00400000000000000
-0.00800000000000000
-0.0190000000000000
0.00700000000000000
0.0350000000000000
0.0430000000000000
-0.00300000000000000
-0.00300000000000000
0.00200000000000000
0.00700000000000000
0.0680000000000000
0.0250000000000000
-0.0290000000000000
-0.0520000000000000
-0.0240000000000000
0.0580000000000000
0.0220000000000000
-0.0190000000000000
-0.0540000000000000
-0.0750000000000000
-0.0190000000000000
0.0380000000000000
0.0480000000000000
0.0250000000000000
-0.0130000000000000
0.00400000000000000
0.0550000000000000
0.0150000000000000
-0.0240000000000000
-0.0700000000000000
-0.0440000000000000
-0.0290000000000000
-0.0190000000000000
-0.0240000000000000
-0.0340000000000000
-0.00100000000000000
0.0170000000000000
-0.00100000000000000
-0.00600000000000000
0.0170000000000000
0.0300000000000000
0.0150000000000000
0.00900000000000000
0.00700000000000000
-0.00100000000000000
0.00400000000000000
0.0120000000000000
-0.0130000000000000
0.0170000000000000
-0.0360000000000000
-0.0490000000000000
-0.00300000000000000
0.0550000000000000
-0.0240000000000000
-0.100000000000000
-0.0390000000000000
0.00700000000000000
0.0350000000000000
0.0270000000000000
0.0150000000000000
0.0200000000000000
0.00700000000000000
0.0120000000000000
0.0350000000000000
0.00200000000000000
0.0170000000000000
-0.00800000000000000
-0.0520000000000000
-0.0570000000000000
-0.0310000000000000
-0.0310000000000000
-0.0360000000000000
-0.0290000000000000
-0.0240000000000000
-0.0260000000000000
-0.0130000000000000
-0.00600000000000000
0.0120000000000000
0.00400000000000000
0.00400000000000000
0.0120000000000000
0.0220000000000000
0.0170000000000000
0.00200000000000000
0.00900000000000000
0.0270000000000000
-0.00800000000000000
-0.0290000000000000
0.00400000000000000
-0.00300000000000000
-0.0360000000000000
-0.0750000000000000
-0.0290000000000000
-0.00300000000000000
-0.00600000000000000
0.0380000000000000
0.0380000000000000
0.0120000000000000
-0.0130000000000000
0.00200000000000000
0.0480000000000000
0.0550000000000000
0.0530000000000000
0.0170000000000000
-0.00600000000000000
-0.00800000000000000
-0.0310000000000000
-0.0850000000000000
-0.0490000000000000
0.0200000000000000
-0.0210000000000000
-0.0260000000000000
-0.0240000000000000
-0.0490000000000000
-0.0240000000000000
0.0200000000000000
0.0320000000000000
0.0250000000000000
0.0150000000000000
0.0150000000000000
0.0320000000000000
0.0120000000000000
-0.0210000000000000
-0.0210000000000000
0.0170000000000000
0.0170000000000000
-0.0130000000000000
-0.0260000000000000
-0.0210000000000000
-0.0240000000000000
-0.0160000000000000
-0.00600000000000000
0.00200000000000000
-0.0240000000000000
-0.0210000000000000
0.0120000000000000
0.0150000000000000
0.0200000000000000
0.0220000000000000
0.00200000000000000
-0.0160000000000000
0.00900000000000000
0.0530000000000000
0.0500000000000000
-0.0130000000000000
-0.00300000000000000
0.0170000000000000
-0.00100000000000000
-0.0240000000000000
-0.0130000000000000
-0.0160000000000000
0.0170000000000000
0.00700000000000000
-0.0440000000000000
-0.0420000000000000
0.0170000000000000
0.0430000000000000
0.0150000000000000
0.0480000000000000
0.00400000000000000
-0.00600000000000000
-0.00300000000000000
0.00700000000000000
0.0200000000000000
0.0150000000000000
-0.00100000000000000
-0.00800000000000000
-0.00600000000000000
-0.0210000000000000
-0.0240000000000000
-0.00800000000000000
-0.0110000000000000
-0.0240000000000000
-0.00300000000000000
-0.0240000000000000
-0.0130000000000000
-0.0110000000000000
0.0450000000000000
0.0250000000000000
-0.00100000000000000
0.0300000000000000
0.0250000000000000
-0.0260000000000000
-0.0240000000000000
0.0200000000000000
0.0580000000000000
0.0830000000000000
0.0270000000000000
0.00700000000000000
-0.0420000000000000
-0.0240000000000000
0.00700000000000000
-0.0240000000000000
-0.0290000000000000
-0.0210000000000000
0.00700000000000000
0.0170000000000000
0.0170000000000000
0.0480000000000000
0.0380000000000000
0.0350000000000000
0.0480000000000000
0.0120000000000000
-0.00100000000000000
-0.0260000000000000
-0.00800000000000000
0.0430000000000000
-0.00100000000000000
-0.0290000000000000
-0.0870000000000000
-0.0640000000000000
0.0350000000000000
0.0480000000000000
-0.00300000000000000
-0.0360000000000000
-0.0190000000000000
-0.00300000000000000
0.00700000000000000
-0.00800000000000000
0.00900000000000000
0.0120000000000000
0.00900000000000000
-0.00100000000000000
0.0200000000000000
0.00700000000000000
0.0480000000000000
0.0150000000000000
0.0270000000000000
0.00400000000000000
-0.0210000000000000
-0.0210000000000000
-0.0160000000000000
-0.0210000000000000
-0.0260000000000000
-0.0130000000000000
-0.00600000000000000
-0.00100000000000000
0.00200000000000000
0.0120000000000000
0.0250000000000000
0.0300000000000000
0.0320000000000000
0.0400000000000000
0.0200000000000000
0.0220000000000000
-0.00800000000000000
-0.00600000000000000
0.00700000000000000
-0.0290000000000000
-0.0130000000000000
-0.0160000000000000
-0.00800000000000000
0.0120000000000000
0.0450000000000000
0.0220000000000000
-0.0160000000000000
-0.0210000000000000
-0.0110000000000000
-0.0190000000000000
0.0220000000000000
0.0380000000000000
0.0120000000000000
-0.00300000000000000
0.0120000000000000
-0.00300000000000000
-0.0210000000000000
-0.0240000000000000
-0.00100000000000000
-0.0160000000000000
-0.0360000000000000
-0.0160000000000000
0.00700000000000000
0.0200000000000000
-0.00800000000000000
-0.0130000000000000
-0.00600000000000000
0.0380000000000000
0.0530000000000000
0.0430000000000000
0.00700000000000000
-0.0160000000000000
0.0380000000000000
0.0120000000000000
0.00700000000000000
0.00200000000000000
-0.00300000000000000
0.00700000000000000
-0.0240000000000000
-0.0290000000000000
-0.0310000000000000
-0.0340000000000000
-0.0210000000000000
-0.0110000000000000
0.00400000000000000
0.00400000000000000
-0.0210000000000000
0.0150000000000000
0.0250000000000000
0.0350000000000000
0.0250000000000000
0.0200000000000000
0.0220000000000000
0.0320000000000000
0.0270000000000000
0.00200000000000000
0.00700000000000000
0.0120000000000000
0.00900000000000000
0.00700000000000000
0.00900000000000000
-0.00600000000000000
-0.0420000000000000
-0.0520000000000000
-0.0440000000000000
-0.0160000000000000
-0.0110000000000000
0.00400000000000000
-0.00800000000000000
-0.00100000000000000
0.0200000000000000
0.0380000000000000
0.0270000000000000
0.00200000000000000
0.0120000000000000
0.0170000000000000
0.0270000000000000
0.0320000000000000
-0.0110000000000000
-0.0130000000000000
0.0200000000000000
-0.0210000000000000
-0.0700000000000000
-0.0470000000000000
0.0220000000000000
0.0350000000000000
-0.0160000000000000
-0.0290000000000000
-0.0190000000000000
-0.00600000000000000
0.00900000000000000
0.0270000000000000
-0.00300000000000000
-0.00800000000000000
0.0220000000000000
0.0200000000000000
0.0120000000000000
-0.00800000000000000
-0.0210000000000000
-0.0310000000000000
-0.00600000000000000
-0.00300000000000000
-0.0210000000000000
-0.0240000000000000
-0.0340000000000000
-0.0160000000000000
0.00400000000000000
0.0270000000000000
0.00400000000000000
-0.00100000000000000
0.0300000000000000
0.0270000000000000
0.00900000000000000
-0.00800000000000000
0.0270000000000000
0.0220000000000000
0.00700000000000000
0.00700000000000000
-0.00600000000000000
-0.0190000000000000
-0.0340000000000000
-0.0340000000000000
-0.0240000000000000
-0.0260000000000000
-0.0240000000000000
0.0200000000000000
-0.0240000000000000
0.00200000000000000
-0.00100000000000000
0.0200000000000000
0.0170000000000000
0.0270000000000000
0.0380000000000000
0.0170000000000000
0.0200000000000000
0.00700000000000000
0.0150000000000000
-0.00100000000000000
-0.00300000000000000
-0.0240000000000000
-0.0290000000000000
-0.0190000000000000
-0.00300000000000000
0.00400000000000000
-0.0160000000000000
-0.0160000000000000
-0.00800000000000000
-0.00300000000000000
-0.00300000000000000
0.0200000000000000
0.0250000000000000
0.0380000000000000
0.0150000000000000
-0.00100000000000000
0.0170000000000000
0.0150000000000000
0.0380000000000000
-0.0130000000000000
-0.0440000000000000
-0.0290000000000000
-0.0190000000000000
0.0170000000000000
0.00900000000000000
-0.00800000000000000
-0.0240000000000000
-0.0210000000000000
-0.0160000000000000
-0.00300000000000000
0.00700000000000000
0.0120000000000000
0.0300000000000000
0.0170000000000000
0.0120000000000000
0.0430000000000000
0.0380000000000000
-0.0240000000000000
-0.0210000000000000
0.0120000000000000
0.0250000000000000
-0.0240000000000000
-0.0420000000000000
-0.0340000000000000
-0.0160000000000000
-0.0290000000000000
-0.0110000000000000
0.0400000000000000
0.0600000000000000
0.0120000000000000
0.00400000000000000
0.0400000000000000
0.00900000000000000
-0.0670000000000000
0.0250000000000000
0.0530000000000000
0.0250000000000000
0.0200000000000000
0.0500000000000000
-0.0240000000000000
-0.0420000000000000
-0.00100000000000000
0.00700000000000000
-0.0420000000000000
-0.0520000000000000
-0.00600000000000000
-0.0390000000000000
-0.0110000000000000
-0.00800000000000000
-0.0490000000000000
-0.0390000000000000
0.0120000000000000
0.0500000000000000
0.0320000000000000
-0.00100000000000000
0.0120000000000000
0.00200000000000000
0.0350000000000000
0.0630000000000000
0.0170000000000000
-0.00800000000000000
-0.00800000000000000
-0.00300000000000000
-0.0340000000000000
-0.0340000000000000
-0.0190000000000000
-0.0310000000000000
-0.0190000000000000
0.00400000000000000
0.0150000000000000
0.00900000000000000
0.00700000000000000
0.0270000000000000
0.0380000000000000
0.00700000000000000
-0.00300000000000000
0.0150000000000000
0.0120000000000000
0.0150000000000000
-0.00100000000000000
-0.0160000000000000
-0.0160000000000000
-0.0160000000000000
-0.0210000000000000
-0.0160000000000000
-0.0130000000000000
-0.00300000000000000
-0.0130000000000000
0.00400000000000000
0.00900000000000000
0.0120000000000000
0.00700000000000000
0.0170000000000000
0.0480000000000000
0.0500000000000000
0.0320000000000000
0.0120000000000000
-0.0240000000000000
-0.0240000000000000
0.0810000000000000
0.00900000000000000
-0.0190000000000000
-0.0290000000000000
-0.0160000000000000
-0.0110000000000000
-0.0240000000000000
-0.0340000000000000
-0.0130000000000000
-0.00100000000000000
0.0220000000000000
0.0320000000000000
0.0480000000000000
0.0400000000000000
-0.00600000000000000
-0.0210000000000000
-0.00100000000000000
0.0120000000000000
0.0250000000000000
0.00700000000000000
0.0270000000000000
0.0150000000000000
-0.00300000000000000
-0.0260000000000000
-0.0240000000000000
-0.0160000000000000
-0.0160000000000000
-0.0210000000000000
-0.00800000000000000
-0.00100000000000000
0.00900000000000000
-0.0110000000000000
0.00700000000000000
0.0250000000000000
0.0150000000000000
0.00900000000000000
-0.0160000000000000
0.0270000000000000
-0.0210000000000000
0.0150000000000000
0.0200000000000000
0.00900000000000000
-0.00100000000000000
-0.0110000000000000
-0.0340000000000000
-0.0260000000000000
-0.0110000000000000
-0.0210000000000000
0.00400000000000000
0.0350000000000000
0.0250000000000000
-0.00100000000000000
0.0120000000000000
0.0660000000000000
0.0890000000000000
0.0550000000000000
0.0680000000000000
0.0400000000000000
-0.0490000000000000
-0.0360000000000000
-0.00800000000000000
-0.00100000000000000
-0.0490000000000000
-0.0700000000000000
-0.0420000000000000
-0.00600000000000000
-0.0190000000000000
-0.0360000000000000
-0.0310000000000000
-0.0360000000000000
-0.0190000000000000
0.0150000000000000
0.0250000000000000
0.0430000000000000
0.0350000000000000
0.0250000000000000
0.0270000000000000
0.00700000000000000
0.0200000000000000
0.0300000000000000
-0.0130000000000000
0.0550000000000000
-0.0310000000000000
-0.0290000000000000
-0.00800000000000000
-0.0110000000000000
-0.0110000000000000
-0.00300000000000000
-0.00300000000000000
-0.00600000000000000
0.00200000000000000
-0.00300000000000000
0.0220000000000000
0.0270000000000000
0.0150000000000000
0.00400000000000000
0.00700000000000000
0.0500000000000000
0.0530000000000000
0.00700000000000000
-0.00800000000000000
-0.00300000000000000
-0.00300000000000000
-0.0110000000000000
-0.0520000000000000
-0.0160000000000000
0.00200000000000000
-0.0240000000000000
-0.0260000000000000
-0.0210000000000000
0.0200000000000000
0.0270000000000000
0.0480000000000000
0.00400000000000000
0.00700000000000000
0.0170000000000000
0.0200000000000000
0.0200000000000000
0.0300000000000000
0.0150000000000000
-0.0240000000000000
-0.00800000000000000
0.0200000000000000
-0.00100000000000000
-0.0290000000000000
-0.0470000000000000
-0.0190000000000000
0.0250000000000000
0.00400000000000000
-0.0520000000000000
-0.0490000000000000
-0.0160000000000000
0.0320000000000000
0.0550000000000000
-0.00100000000000000
0.00700000000000000
0.0120000000000000
0.0120000000000000
-0.00800000000000000
0.0170000000000000
-0.00300000000000000
-0.0110000000000000
-0.0110000000000000
-0.00300000000000000
-0.00600000000000000
0.00700000000000000
-0.0190000000000000
-0.0240000000000000
0.00900000000000000
-0.00100000000000000
-0.0260000000000000
-0.0240000000000000
0.00200000000000000
0.0120000000000000
0.0220000000000000
-0.0360000000000000
-0.00100000000000000
0.0500000000000000
0.0400000000000000
0.0250000000000000
0.0200000000000000
0.00900000000000000
-0.0190000000000000
-0.00100000000000000
0.00400000000000000
-0.0130000000000000
-0.0310000000000000
-0.0310000000000000
-0.0130000000000000
0.00200000000000000
0.0120000000000000
-0.00600000000000000
0.00900000000000000
0.0380000000000000
0.0380000000000000
0.0170000000000000
-0.0190000000000000
0.00900000000000000
0.00200000000000000
0.0600000000000000
0.00700000000000000
-0.00300000000000000
-0.0160000000000000
-0.0290000000000000
-0.0160000000000000
0.00700000000000000
-0.00100000000000000
-0.00300000000000000
-0.0190000000000000
-0.0210000000000000
-0.00100000000000000
-0.00100000000000000
0.0120000000000000
0.00700000000000000
0.0380000000000000
0.0430000000000000
0.0150000000000000
0.00700000000000000
0.00400000000000000
0.0250000000000000
0.0530000000000000
0.00700000000000000
-0.0620000000000000
-0.0130000000000000
-0.0210000000000000
0.0320000000000000
0.0580000000000000
-0.0490000000000000
0.00700000000000000
-0.0570000000000000
-0.0290000000000000
-0.0210000000000000
-0.00100000000000000
0.0170000000000000
0.0250000000000000
0.0170000000000000
0.00900000000000000
0.0170000000000000
-0.00300000000000000
0.00400000000000000
-0.0190000000000000
-0.00100000000000000
-0.00800000000000000
0.0200000000000000
-0.00300000000000000
-0.0240000000000000
-0.0470000000000000
-0.0390000000000000
-0.0160000000000000
-0.0290000000000000
0.0270000000000000
0.0380000000000000
0.0320000000000000
0.0200000000000000
0.0580000000000000
0.0270000000000000
0.0170000000000000
0.0400000000000000
0.0200000000000000
-0.0190000000000000
-0.0490000000000000
-0.0360000000000000
-0.00800000000000000
-0.00800000000000000
-0.0210000000000000
-0.00800000000000000
-0.00600000000000000
0.00700000000000000
0.0380000000000000
-0.0160000000000000
-0.0130000000000000
-0.0210000000000000
0.00900000000000000
0.0320000000000000
0.0380000000000000
0.0270000000000000
0.0270000000000000
-0.00800000000000000
-0.0110000000000000
0.0120000000000000
-0.00300000000000000
-0.00600000000000000
0.00700000000000000
-0.0160000000000000
-0.0340000000000000
-0.0210000000000000
0.00400000000000000
0.0120000000000000
0.00700000000000000
-0.0290000000000000
-0.00300000000000000
-0.00300000000000000
-0.00300000000000000
-0.0210000000000000
0.0320000000000000
0.0430000000000000
0.0320000000000000
0.0150000000000000
-0.00800000000000000
0.0200000000000000
0.0120000000000000
0.00400000000000000
-0.00600000000000000
-0.00800000000000000
-0.0360000000000000
0.00200000000000000
0.00700000000000000
-0.00600000000000000
-0.0190000000000000
-0.0240000000000000
0.0170000000000000
0.0400000000000000
0.0320000000000000
0.0350000000000000
0.0350000000000000
-0.00600000000000000
-0.0110000000000000
0.00900000000000000
-0.00300000000000000
0.00700000000000000
-0.00300000000000000
-0.0110000000000000
-0.0110000000000000
-0.0240000000000000
-0.0340000000000000
-0.0190000000000000
-0.00800000000000000
-0.0210000000000000
-0.00300000000000000
-0.0160000000000000
0.0250000000000000
0.0170000000000000
0.0170000000000000
0.0200000000000000
0.0380000000000000
0.0120000000000000
0.0170000000000000
0.0430000000000000
0.0270000000000000
0.0170000000000000
-0.0160000000000000
-0.0310000000000000
-0.0390000000000000
-0.0420000000000000
-0.0310000000000000
0.0120000000000000
-0.00100000000000000
-0.0210000000000000
-0.00600000000000000
-0.00300000000000000
0.0170000000000000
0.0120000000000000
0.0170000000000000
0.0250000000000000
0.0250000000000000
0.0170000000000000
-0.00300000000000000
0.0120000000000000
0.0120000000000000
0.0450000000000000
0.0250000000000000
0.0170000000000000
0.00700000000000000
-0.00600000000000000
-0.0850000000000000
-0.0590000000000000
0.00200000000000000
-0.0340000000000000
-0.0440000000000000
-0.0390000000000000
0.0550000000000000
0.0380000000000000
0.0150000000000000
-0.0210000000000000
-0.00600000000000000
0.0170000000000000
0.0200000000000000
0.0430000000000000
0.0350000000000000
0.0300000000000000
0.0120000000000000
0.0120000000000000
-0.0310000000000000
-0.0440000000000000
-0.0490000000000000
-0.0260000000000000
-0.00600000000000000
-0.0190000000000000
-0.0160000000000000
-0.0260000000000000
0.0150000000000000
-0.00600000000000000
0.0200000000000000
0.0320000000000000
0.0250000000000000
0.0320000000000000
0.0760000000000000
0.109000000000000
0.0270000000000000
0.00900000000000000
-0.0540000000000000
-0.0670000000000000
-0.0440000000000000
0.0150000000000000
0.0120000000000000
0.0170000000000000
-0.0340000000000000
-0.0340000000000000
-0.00800000000000000
-0.0290000000000000
-0.00100000000000000
-0.0130000000000000
0.00400000000000000
0.0250000000000000
0.0320000000000000
0.0300000000000000
0.0270000000000000
0.0500000000000000
0.0380000000000000
0.0450000000000000
0.00200000000000000
-0.0490000000000000
-0.0640000000000000
-0.0260000000000000
-0.0310000000000000
-0.0110000000000000
-0.0130000000000000
-0.0190000000000000
-0.00800000000000000
-0.0210000000000000
-0.00800000000000000
-0.00800000000000000
0.0250000000000000
0.0170000000000000
0.0170000000000000
0.0270000000000000
0.0170000000000000
0.0150000000000000
-0.00600000000000000
0.00900000000000000
0.00900000000000000
0.0430000000000000
0.0170000000000000
-0.0110000000000000
-0.0360000000000000
-0.0360000000000000
-0.0130000000000000
-0.0160000000000000
-0.0240000000000000
-0.0290000000000000
0.00400000000000000
0.0120000000000000
0.0120000000000000
0.00200000000000000
0.0350000000000000
0.0480000000000000
0.0170000000000000
0.00900000000000000
0.0220000000000000
0.0350000000000000
-0.00100000000000000
0.0150000000000000
-0.0210000000000000
-0.0260000000000000
-0.0340000000000000
-0.0210000000000000
-0.00600000000000000
-0.0210000000000000
-0.0290000000000000
-0.0310000000000000
0.0170000000000000
0.0350000000000000
0.0120000000000000
-0.00300000000000000
0.0170000000000000
0.0300000000000000
0.0170000000000000
0.0200000000000000
0.0400000000000000
0.0430000000000000
0.0150000000000000
0.0220000000000000
-0.00300000000000000
-0.0700000000000000
-0.0820000000000000
-0.00300000000000000
0.00200000000000000
-0.0290000000000000
-0.0190000000000000
-0.0670000000000000
-0.0160000000000000
0.0350000000000000
0.0550000000000000
0.0530000000000000
0.0380000000000000
0.0300000000000000
-0.0130000000000000
0.0400000000000000
0.0500000000000000
0.0200000000000000
-0.0340000000000000
-0.0210000000000000
-0.0240000000000000
-0.0210000000000000
-0.0310000000000000
-0.0190000000000000
-0.0210000000000000
-0.0130000000000000
0.00700000000000000
-0.0160000000000000
-0.00100000000000000
0.00700000000000000
0.0270000000000000
0.0270000000000000
0.00400000000000000
-0.00600000000000000
0.0380000000000000
0.0660000000000000
0.0250000000000000
-0.0190000000000000
0.0220000000000000
0.00200000000000000
0.0200000000000000
-0.0130000000000000
-0.00300000000000000
0.0300000000000000
-0.0190000000000000
-0.0260000000000000
-0.0440000000000000
-0.0590000000000000
-0.0360000000000000
0.0120000000000000
0.0500000000000000
0.0270000000000000
0.0170000000000000
-0.00100000000000000
-0.00300000000000000
-0.00300000000000000
-0.00600000000000000
0.0150000000000000
0.0270000000000000
-0.00600000000000000
-0.0340000000000000
-0.0240000000000000
-0.0310000000000000
-0.00300000000000000
-0.0130000000000000
-0.0160000000000000
-0.0130000000000000
-0.0210000000000000
0.00200000000000000
0.00400000000000000
0.0170000000000000
0.0220000000000000
0.0320000000000000
0.0200000000000000
0.0250000000000000
0.0200000000000000
0.00700000000000000
0.0170000000000000
0.0150000000000000
-0.00100000000000000
-0.0130000000000000
-0.0130000000000000
-0.0260000000000000
-0.0290000000000000
-0.0260000000000000
-0.0390000000000000
-0.0160000000000000
-0.0160000000000000
0.00900000000000000
0.0120000000000000
0.0300000000000000
0.0320000000000000
0.0270000000000000
0.00700000000000000
0.0120000000000000
0.0600000000000000
0.0760000000000000
0.0550000000000000
-0.00800000000000000
-0.0190000000000000
-0.0160000000000000
-0.0420000000000000
-0.0290000000000000
-0.0240000000000000
-0.0570000000000000
-0.0850000000000000
-0.0210000000000000
-0.00300000000000000
0.0380000000000000
0.0320000000000000
0.0320000000000000
0.00700000000000000
0.00900000000000000
0.00900000000000000
0.0380000000000000
0.0380000000000000
-0.00300000000000000
0.00700000000000000
0.0200000000000000
0.00700000000000000
-0.00100000000000000
-0.00800000000000000
-0.00800000000000000
0.0200000000000000
0.0120000000000000
-0.0260000000000000
-0.0440000000000000
-0.0540000000000000
-0.0110000000000000
0.0120000000000000
0.0450000000000000
0.0480000000000000
0.0400000000000000
-0.00600000000000000
-0.0160000000000000
-0.00300000000000000
-0.0110000000000000
0.0200000000000000
0.00400000000000000
0.00900000000000000
-0.00100000000000000
-0.0260000000000000
-0.0470000000000000
-0.00100000000000000
0.0120000000000000
-0.0160000000000000
-0.0210000000000000
-0.0360000000000000
-0.00800000000000000
-0.00100000000000000
0.0170000000000000
0.0220000000000000
0.0270000000000000
0.0220000000000000
0.0250000000000000
0.0270000000000000
0.0170000000000000
0.0380000000000000
0.0120000000000000
0.0250000000000000
0.00700000000000000
-0.00800000000000000
-0.0130000000000000
0.00700000000000000
-0.00300000000000000
-0.0160000000000000
-0.0260000000000000
-0.0490000000000000
0.00700000000000000
0.00700000000000000
-0.0160000000000000
-0.0340000000000000
0.0250000000000000
0.0220000000000000
0.0270000000000000
0.00700000000000000
-0.00600000000000000
0.0200000000000000
-0.0110000000000000
-0.0310000000000000
-0.00300000000000000
-0.0130000000000000
-0.0340000000000000
-0.00800000000000000
-0.00300000000000000
-0.00800000000000000
-0.0160000000000000
-0.0240000000000000
0.0170000000000000
0.00900000000000000
0.0220000000000000
0.0450000000000000
0.0450000000000000
0.00200000000000000
0.0270000000000000
0.0480000000000000
0.114000000000000
0.0550000000000000
-0.0490000000000000
-0.0210000000000000
0.0250000000000000
-0.00600000000000000
-0.0670000000000000
-0.0620000000000000
-0.0490000000000000
-0.00300000000000000
0.0250000000000000
-0.00100000000000000
-0.0340000000000000
-0.0290000000000000
-0.0130000000000000
0.0350000000000000
0.0710000000000000
0.0500000000000000
0.0300000000000000
0.00200000000000000
-0.0260000000000000
0.00700000000000000
-0.00100000000000000
-0.0130000000000000
-0.0160000000000000
-0.00800000000000000
-0.0240000000000000
-0.0190000000000000
-0.0240000000000000
-0.00600000000000000
0.00200000000000000
-0.0130000000000000
0.0250000000000000
0.0200000000000000
0.0200000000000000
0.0200000000000000
0.0270000000000000
-0.00600000000000000
-0.00300000000000000
-0.00300000000000000
0.00200000000000000
0.0480000000000000
0.00900000000000000
0.0250000000000000
0.0350000000000000
-0.00100000000000000
-0.00300000000000000
-0.0340000000000000
-0.0590000000000000
-0.0520000000000000
-0.0240000000000000
-0.0240000000000000
-0.00100000000000000
0.0120000000000000
0.0380000000000000
0.0200000000000000
-0.00100000000000000
0.0150000000000000
0.0270000000000000
0.00900000000000000
0.0150000000000000
0.0300000000000000
0.00900000000000000
-0.0160000000000000
-0.0260000000000000
-0.0130000000000000
-0.0160000000000000
-0.00300000000000000
-0.0240000000000000
-0.0240000000000000
0.00400000000000000
0.00400000000000000
0.0200000000000000
-0.0130000000000000
0.00400000000000000
0.0580000000000000
0.0580000000000000
-0.0190000000000000
-0.0110000000000000
0.0120000000000000
-0.00600000000000000
-0.00600000000000000
0.0200000000000000
0.00700000000000000
0.0150000000000000
-0.00600000000000000
-0.0440000000000000
-0.0290000000000000
-0.0190000000000000
-0.00300000000000000
0.0170000000000000
-0.0160000000000000
-0.0160000000000000
-0.0130000000000000
0.0170000000000000
0.0250000000000000
0.0200000000000000
0.0120000000000000
0.0120000000000000
0.0170000000000000
0.00700000000000000
0.0170000000000000
0.0120000000000000
0.0250000000000000
-0.0260000000000000
-0.0390000000000000
-0.0340000000000000
-0.00300000000000000
0.00200000000000000
0.0150000000000000
-0.00100000000000000
-0.0490000000000000
-0.0260000000000000
-0.0190000000000000
0.00700000000000000
0.0500000000000000
0.0200000000000000
-0.00300000000000000
0.0320000000000000
0.0170000000000000
0.0120000000000000
0.00900000000000000
0.0580000000000000
-0.00300000000000000
0.00700000000000000
-0.00300000000000000
-0.0540000000000000
-0.0340000000000000
-0.0160000000000000
-0.0130000000000000
-0.00800000000000000
-0.0210000000000000
0.0150000000000000
0.0120000000000000
-0.00100000000000000
0.00700000000000000
0.0320000000000000
0.0220000000000000
0.0250000000000000
0.0150000000000000
0.0170000000000000
0.0220000000000000
0.0150000000000000
-0.0160000000000000
-0.0130000000000000
-0.00600000000000000
-0.0210000000000000
-0.0240000000000000
-0.0310000000000000
-0.0240000000000000
-0.00600000000000000
0.00200000000000000
0.0550000000000000
0.00700000000000000
0.00900000000000000
0.0200000000000000
0.0200000000000000
0.0220000000000000
0.0380000000000000
0.0220000000000000
0.00200000000000000
0.00700000000000000
-0.00300000000000000
0.0170000000000000
-0.00300000000000000
-0.0390000000000000
-0.0520000000000000
-0.0210000000000000
-0.0240000000000000
0.0170000000000000
0.0200000000000000
0.00200000000000000
0.00400000000000000
0.0120000000000000
0.00400000000000000
-0.00100000000000000
0.00700000000000000
0.0500000000000000
0.0810000000000000
0.0380000000000000
-0.0130000000000000
0.00400000000000000
0.00200000000000000
-0.00800000000000000
-0.0310000000000000
-0.0260000000000000
-0.0930000000000000
-0.0870000000000000
-0.00600000000000000
0.0380000000000000
-0.00100000000000000
-0.0490000000000000
0.0120000000000000
0.0150000000000000
0.0170000000000000
0.0170000000000000
0.0500000000000000
0.0270000000000000
0.0150000000000000
0.0120000000000000
0.0220000000000000
0.0270000000000000
0.0270000000000000
-0.00300000000000000
0.00200000000000000
-0.0110000000000000
-0.0340000000000000
-0.0240000000000000
-0.00300000000000000
0.00400000000000000
0.00700000000000000
-0.0360000000000000
0.0200000000000000
0.0270000000000000
0.0170000000000000
0.0120000000000000
0.0430000000000000
0.0380000000000000
-0.00600000000000000
-0.0240000000000000
-0.0110000000000000
0.0170000000000000
0.0270000000000000
0.0480000000000000
0.0170000000000000
-0.0240000000000000
-0.0670000000000000
-0.0390000000000000
-0.0190000000000000
-0.0160000000000000
-0.0160000000000000
-0.0390000000000000
-0.0160000000000000
0.0120000000000000
0.0170000000000000
0.0150000000000000
0.0270000000000000
0.0270000000000000
0.0170000000000000
0.0120000000000000
0.0250000000000000
0.0170000000000000
-0.0210000000000000
0.00400000000000000
-0.00300000000000000
-0.00100000000000000
-0.0240000000000000
0.00700000000000000
-0.00100000000000000
0.00700000000000000
-0.0110000000000000
-0.00600000000000000
0.0710000000000000
0.0380000000000000
-0.0160000000000000
-0.0240000000000000
-0.00300000000000000
-0.0240000000000000
0.00700000000000000
0.0150000000000000
0.00200000000000000
-0.00600000000000000
-0.0160000000000000
-0.0210000000000000
-0.0240000000000000
-0.00800000000000000
-0.00800000000000000
-0.0240000000000000
-0.0240000000000000
-0.0190000000000000
-0.00600000000000000
-0.0240000000000000
0.00400000000000000
0.00900000000000000
0.0120000000000000
0.0250000000000000
0.0380000000000000
0.0170000000000000
0.00700000000000000
0.0450000000000000
0.0400000000000000
0.0430000000000000
0.0170000000000000
0.0170000000000000
-0.00600000000000000
-0.0470000000000000
-0.0590000000000000
-0.0490000000000000
-0.0420000000000000
-0.0160000000000000
0.00400000000000000
-0.0210000000000000
-0.0110000000000000
-0.0290000000000000
0.00200000000000000
0.0320000000000000
0.0450000000000000
0.0430000000000000
0.0250000000000000
0.00400000000000000
0.00400000000000000
0.00200000000000000
-0.00600000000000000
-0.00300000000000000
-0.0210000000000000
-0.00100000000000000
0.00900000000000000
-0.0160000000000000
-0.0160000000000000
-0.00300000000000000
0.0380000000000000
0.0120000000000000
-0.00300000000000000
-0.0240000000000000
-0.0240000000000000
-0.0110000000000000
0.00700000000000000
0.0300000000000000
0.0250000000000000
0.0320000000000000
0.0430000000000000
0.0250000000000000
-0.0240000000000000
-0.0360000000000000
-0.00800000000000000
-0.00600000000000000
-0.0470000000000000
-0.0360000000000000
-0.0130000000000000
-0.00100000000000000
-0.00300000000000000
-0.0360000000000000
-0.0190000000000000
0.00200000000000000
0.0380000000000000
0.0320000000000000
0.0200000000000000
-0.00600000000000000
0.0170000000000000
0.0170000000000000
0.00700000000000000
0.0350000000000000
0.0300000000000000
0.0250000000000000
-0.00300000000000000
-0.0340000000000000
-0.0470000000000000
-0.0290000000000000
-0.0260000000000000
-0.0360000000000000
-0.0130000000000000
-0.00100000000000000
-0.0210000000000000
-0.0240000000000000
0.0430000000000000
0.0300000000000000
0.0480000000000000
0.0660000000000000
0.0250000000000000
-0.0160000000000000
0.00700000000000000
0.00900000000000000
0.0250000000000000
-0.00800000000000000
-0.0340000000000000
-0.0210000000000000
-0.0240000000000000
-0.00100000000000000
0.0120000000000000
-0.0240000000000000
-0.0240000000000000
0.0710000000000000
0.00200000000000000
-0.0420000000000000
-0.0110000000000000
0.0380000000000000
0.0380000000000000
0.0350000000000000
0.0300000000000000
0.00700000000000000
-0.0290000000000000
-0.0420000000000000
-0.0110000000000000
0.0250000000000000
0.0170000000000000
0.0250000000000000
-0.0440000000000000
0.0220000000000000
0.0220000000000000
-0.0110000000000000
-0.0340000000000000
-0.0310000000000000
-0.0260000000000000
-0.0210000000000000
0.00900000000000000
0.0350000000000000
0.0480000000000000
0.0170000000000000
0.00700000000000000
0.0120000000000000
0.0450000000000000
0.0320000000000000
-0.00800000000000000
-0.0240000000000000
0.0170000000000000
-0.0130000000000000
-0.00100000000000000
-0.0130000000000000
-0.0290000000000000
-0.0240000000000000
-0.0260000000000000
-0.0360000000000000
0.0150000000000000
0.00700000000000000
0.0300000000000000
0.0170000000000000
0.0200000000000000
0.0150000000000000
0.0270000000000000
0.0200000000000000
0.0200000000000000
0.0120000000000000
0.0380000000000000
0.0350000000000000
0.00400000000000000
-0.0340000000000000
-0.0360000000000000
-0.0440000000000000
-0.0390000000000000
0.00400000000000000
0.0200000000000000
-0.0130000000000000
-0.0160000000000000
0.0120000000000000
0.00700000000000000
0.0200000000000000
0.0270000000000000
0.0150000000000000
0.0170000000000000
0.0120000000000000
0.00400000000000000
-0.0130000000000000
-0.0340000000000000
-0.0240000000000000
0.0120000000000000
-0.00100000000000000
0.00200000000000000
-0.0160000000000000
-0.0260000000000000
-0.0290000000000000
-0.0130000000000000
-0.0340000000000000
-0.0190000000000000
0.0120000000000000
0.0200000000000000
0.00700000000000000
0.0150000000000000
0.0320000000000000
0.0350000000000000
0.0250000000000000
0.00700000000000000
-0.0240000000000000
0.0600000000000000
-0.0670000000000000
-0.0640000000000000
-0.0750000000000000
-0.0620000000000000
0.0660000000000000
0.0990000000000000
0.0250000000000000
-0.00600000000000000
-0.0160000000000000
0.0150000000000000
0.0270000000000000
0.0380000000000000
0.0220000000000000
0.0320000000000000
0.0250000000000000
0.0300000000000000
0.00700000000000000
-0.00800000000000000
-0.00300000000000000
-0.0210000000000000
-0.00800000000000000
0.0480000000000000
-0.00800000000000000
-0.0540000000000000
-0.0820000000000000
-0.115000000000000
-0.123000000000000
-0.100000000000000
-0.0640000000000000
0.147000000000000
0.183000000000000
0.0910000000000000
0.0500000000000000
-0.0110000000000000
-0.00600000000000000
0.0150000000000000
0.0170000000000000
0.00200000000000000
-0.0570000000000000
-0.0470000000000000
0.00700000000000000
0.00200000000000000
0.0250000000000000
-0.0770000000000000
-0.0620000000000000
-0.0340000000000000
0.00700000000000000
-0.0130000000000000
-0.00300000000000000
0.0940000000000000
0.0830000000000000
-0.0160000000000000
-0.0240000000000000
0.0600000000000000
0.0600000000000000
0.00700000000000000
-0.0290000000000000
-0.0210000000000000
-0.00100000000000000
-0.0160000000000000
-0.0390000000000000
0.0150000000000000
0.0320000000000000
-0.00100000000000000
0.0250000000000000
0.0250000000000000
0.0250000000000000
0.0550000000000000
0.0200000000000000
0.00700000000000000
-0.0540000000000000
-0.0260000000000000
0.0200000000000000
0.0350000000000000
0.0150000000000000
-0.0440000000000000
-0.0770000000000000
0.0170000000000000
0.0660000000000000
0.0940000000000000
0.114000000000000
0.0220000000000000
-0.00100000000000000
0.0250000000000000
-0.00600000000000000
-0.0570000000000000
-0.0720000000000000
-0.0130000000000000
-0.0470000000000000
-0.0950000000000000
-0.110000000000000
-0.00100000000000000
0.0760000000000000
0.0580000000000000
-0.00600000000000000
0.00900000000000000
-0.0240000000000000
-0.0160000000000000
0.0170000000000000
0.0830000000000000
0.0550000000000000
-0.0240000000000000
-0.149000000000000
-0.123000000000000
0.0480000000000000
0.129000000000000
0.0580000000000000
-0.0670000000000000
-0.0850000000000000
-0.0130000000000000
0.0710000000000000
-0.00300000000000000
-0.0470000000000000
-0.0750000000000000
0.00200000000000000
0.0890000000000000
0.0910000000000000
0.0660000000000000
-0.0570000000000000
0.0350000000000000
-0.0570000000000000
-0.0700000000000000
-0.00300000000000000
0.0480000000000000
0.0170000000000000
-0.0240000000000000
-0.0750000000000000
-0.00300000000000000
-0.0110000000000000
-0.0950000000000000
-0.141000000000000
0.0890000000000000
0.124000000000000
0.0780000000000000
0.0680000000000000
-0.0540000000000000
-0.0240000000000000
0.0630000000000000
0.0990000000000000
0.0300000000000000
-0.0520000000000000
0.0150000000000000
-0.0440000000000000
-0.0390000000000000
0.0320000000000000
0.0890000000000000
-0.00800000000000000
-0.0160000000000000
-0.0260000000000000
-0.00600000000000000
-0.0340000000000000
-0.0390000000000000
0.0150000000000000
0.0810000000000000
0.160000000000000
0.157000000000000
0.0760000000000000
-0.0850000000000000
-0.197000000000000
-0.126000000000000
-0.0570000000000000
-0.0340000000000000
-0.0340000000000000
-0.0360000000000000
-0.00300000000000000
0.0430000000000000
0.0680000000000000
0.0250000000000000
-0.0850000000000000
-0.0260000000000000
0.101000000000000
0.221000000000000
0.160000000000000
0.147000000000000
0.0780000000000000
0.0120000000000000
-0.118000000000000
-0.228000000000000
-0.131000000000000
0.0350000000000000
0.106000000000000
0.0270000000000000
-0.0620000000000000
-0.0290000000000000
0.0200000000000000
-0.0440000000000000
-0.0360000000000000
-0.0240000000000000
-0.0850000000000000
-0.0210000000000000
0.178000000000000
0.328000000000000
0.0830000000000000
-0.146000000000000
-0.0900000000000000
-0.0470000000000000
-0.105000000000000
-0.0520000000000000
0.0220000000000000
-0.0700000000000000
-0.266000000000000
-0.0420000000000000
0.173000000000000
0.170000000000000
0.160000000000000
0.0200000000000000
0.0270000000000000
-0.110000000000000
0.0320000000000000
0.0430000000000000
-0.0290000000000000
-0.0670000000000000
-0.0420000000000000
-0.0110000000000000
0.0400000000000000
0.0730000000000000
0.00900000000000000
-0.0820000000000000
-0.105000000000000
-0.0260000000000000
0.0990000000000000
0.111000000000000
0.0660000000000000
-0.0590000000000000
-0.245000000000000
-0.103000000000000
0.259000000000000
0.219000000000000
-0.126000000000000
-0.169000000000000
-0.00800000000000000
0.150000000000000
0.0810000000000000
0.0450000000000000
0.0710000000000000
-0.0310000000000000
-0.105000000000000
-0.0210000000000000
0.0780000000000000
0.0710000000000000
0.0320000000000000
0.117000000000000
0.0480000000000000
-0.0900000000000000
-0.276000000000000
-0.166000000000000
0.0990000000000000
0.139000000000000
0.211000000000000
0.160000000000000
-0.0420000000000000
-0.0570000000000000
-0.151000000000000
-0.108000000000000
-0.138000000000000
-0.123000000000000
0.111000000000000
0.188000000000000
0.198000000000000
0.152000000000000
0.0810000000000000
-0.0540000000000000
-0.238000000000000
-0.105000000000000
0.239000000000000
0.0200000000000000
0.0270000000000000
0.216000000000000
0.0990000000000000
-0.0900000000000000
-0.115000000000000
-0.0470000000000000
-0.0930000000000000
-0.197000000000000
-0.0470000000000000
0.262000000000000
0.0150000000000000
-0.0160000000000000
-0.0340000000000000
-0.100000000000000
0.0350000000000000
-0.0640000000000000
-0.161000000000000
0.0890000000000000
0.196000000000000
-0.00800000000000000
-0.0820000000000000
0.0220000000000000
-0.0360000000000000
0.0530000000000000
0.145000000000000
-0.151000000000000
-0.0520000000000000
0.119000000000000
0.114000000000000
0.221000000000000
0.0480000000000000
-0.256000000000000
-0.0770000000000000
0.0450000000000000
0.0710000000000000
0.0890000000000000
0.122000000000000
-0.138000000000000
0.111000000000000
0.0860000000000000
-0.240000000000000
-0.110000000000000
-0.110000000000000
-0.207000000000000
0.0430000000000000
0.0350000000000000
-0.0850000000000000
0.229000000000000
0.259000000000000
0.111000000000000
0.0380000000000000
0.190000000000000
0.254000000000000
-0.0570000000000000
-0.281000000000000
-0.105000000000000
0.0480000000000000
-0.0870000000000000
-0.141000000000000
-0.238000000000000
-0.131000000000000
0.0730000000000000
0.221000000000000
0.384000000000000
0.147000000000000
-0.172000000000000
-0.115000000000000
-0.0900000000000000
-0.0390000000000000
0.0270000000000000
0.0780000000000000
-0.0420000000000000
-0.0240000000000000
0.106000000000000
-0.0620000000000000
-0.151000000000000
-0.108000000000000
0.247000000000000
0.190000000000000
-0.0980000000000000
-0.284000000000000
0.190000000000000
0.0830000000000000
-0.151000000000000
-0.251000000000000
-0.131000000000000
0.0580000000000000
0.328000000000000
0.0400000000000000
-0.192000000000000
0.0270000000000000
0.0530000000000000
0.0200000000000000
0.0940000000000000
0.198000000000000
0.0480000000000000
-0.212000000000000
-0.121000000000000
-0.0490000000000000
-0.0160000000000000
0.0860000000000000
-0.0820000000000000
-0.0210000000000000
0.0660000000000000
-0.0130000000000000
-0.0900000000000000
-0.0620000000000000
0.0580000000000000
0.0760000000000000
0.0250000000000000
0.0580000000000000
0.206000000000000
-0.0620000000000000
-0.0190000000000000
0.364000000000000
-0.0310000000000000
-0.291000000000000
-0.174000000000000
-0.131000000000000
0.0580000000000000
0.117000000000000
0.0660000000000000
0.0430000000000000
-0.128000000000000
0.0400000000000000
0.0680000000000000
0.0150000000000000
0.00900000000000000
0.145000000000000
-0.105000000000000
-0.0260000000000000
-0.0190000000000000
0.127000000000000
0.0810000000000000
0.00400000000000000
-0.00100000000000000
0.160000000000000
-0.0130000000000000
-0.121000000000000
0.0780000000000000
0.0830000000000000
0.111000000000000
-0.110000000000000
-0.187000000000000
-0.0490000000000000
0.0910000000000000
-0.0420000000000000
-0.121000000000000
-0.156000000000000
0.180000000000000
0.0660000000000000
-0.0820000000000000
0.142000000000000
0.0960000000000000
0.00400000000000000
-0.0570000000000000
0.0450000000000000
-0.0160000000000000
0.0550000000000000
-0.0130000000000000
-0.281000000000000
-0.0670000000000000
-0.0360000000000000
-0.0260000000000000
0.0960000000000000
0.132000000000000
-0.0750000000000000
-0.0620000000000000
-0.128000000000000
-0.105000000000000
0.0120000000000000
0.0680000000000000
0.0580000000000000
-0.0870000000000000
0.0710000000000000
-0.0340000000000000
0.0630000000000000
0.122000000000000
-0.0850000000000000
-0.0260000000000000
-0.0420000000000000
0.00900000000000000
0.0780000000000000
-0.0980000000000000
-0.00100000000000000
0.0170000000000000
0.0220000000000000
0.0380000000000000
-0.0420000000000000
0.117000000000000
0.147000000000000
0.180000000000000
0.0220000000000000
0.0120000000000000
-0.0420000000000000
0.0220000000000000
-0.00100000000000000
-0.0340000000000000
-0.279000000000000
0.160000000000000
0.0760000000000000
-0.121000000000000
-0.0720000000000000
-0.0340000000000000
0.183000000000000
0.0660000000000000
0.198000000000000
0.0300000000000000
-0.182000000000000
-0.0640000000000000
-0.0900000000000000
-0.105000000000000
0.183000000000000
0.106000000000000
-0.126000000000000
-0.0240000000000000
0.280000000000000
-0.0870000000000000
-0.245000000000000
-0.0470000000000000
0.0450000000000000
-0.105000000000000
-0.166000000000000
-0.00800000000000000
-0.0620000000000000
-0.0490000000000000
0.119000000000000
0.0380000000000000
-0.0950000000000000
0.00700000000000000
0.0500000000000000
0.0270000000000000
-0.0440000000000000
0.0480000000000000
0.155000000000000
0.0810000000000000
-0.0820000000000000
-0.166000000000000
-0.146000000000000
0.0300000000000000
-0.0570000000000000
-0.0570000000000000
0.00400000000000000
0.129000000000000
0.0940000000000000
-0.0700000000000000
-0.0700000000000000
-0.0360000000000000
-0.0570000000000000
0.201000000000000
0.162000000000000
0.0600000000000000
-0.00600000000000000
0.0990000000000000
0.145000000000000
0.231000000000000
-0.143000000000000
0.0780000000000000
-0.0950000000000000
-0.174000000000000
0.00400000000000000
0.0810000000000000
0.0830000000000000
0.0200000000000000
-0.0640000000000000
-0.0520000000000000
-0.100000000000000
-0.0440000000000000
0.0250000000000000
-0.00800000000000000
0.129000000000000
0.219000000000000
-0.0190000000000000
-0.138000000000000
-0.0900000000000000
-0.0850000000000000
-0.197000000000000
0.0320000000000000
-0.0850000000000000
-0.0720000000000000
0.0890000000000000
-0.0340000000000000
0.0450000000000000
0.0430000000000000
0.0250000000000000
0.185000000000000
-0.00300000000000000
0.0480000000000000
-0.0110000000000000
-0.0340000000000000
0.106000000000000
0.155000000000000
0.0780000000000000
-0.141000000000000
-0.172000000000000
0.0270000000000000
-0.179000000000000
-0.118000000000000
0.0890000000000000
0.0780000000000000
0.0940000000000000
-0.00800000000000000
-0.00300000000000000
0.0780000000000000
0.201000000000000
-0.0240000000000000
0.160000000000000
0.165000000000000
-0.172000000000000
-0.123000000000000
0.0200000000000000
-0.0420000000000000
-0.103000000000000
0.114000000000000
0.0530000000000000
-0.123000000000000
-0.0210000000000000
-0.0360000000000000
-0.0850000000000000
-0.136000000000000
0.127000000000000
0.170000000000000
0.0250000000000000
-0.245000000000000
-0.113000000000000
-0.0420000000000000
-0.0290000000000000
0.0480000000000000
0.0320000000000000
-0.0160000000000000
0.00700000000000000
0.211000000000000
0.229000000000000
0.0170000000000000
-0.268000000000000
-0.0340000000000000
-0.0260000000000000
0.109000000000000
0.104000000000000
-0.0390000000000000
-0.0670000000000000
0.0270000000000000
0.00200000000000000
-0.0750000000000000
-0.0640000000000000
-0.00300000000000000
0.0990000000000000
0.0480000000000000
0.0500000000000000
0.129000000000000
0.0480000000000000
-0.121000000000000
-0.0900000000000000
0.00900000000000000
-0.0620000000000000
0.0550000000000000
0.0580000000000000
0.152000000000000
0.124000000000000
0.101000000000000
-0.0820000000000000
-0.215000000000000
-0.0470000000000000
0.0580000000000000
-0.197000000000000
-0.0930000000000000
0.285000000000000
0.101000000000000
-0.177000000000000
-0.0440000000000000
-0.00300000000000000
0.150000000000000
0.0780000000000000
-0.0950000000000000
0.0530000000000000
0.0940000000000000
-0.0440000000000000
0.00700000000000000
-0.0620000000000000
0.0170000000000000
-0.0670000000000000
0.0760000000000000
-0.0470000000000000
-0.159000000000000
0.165000000000000
0.109000000000000
-0.103000000000000
-0.0850000000000000
0.0860000000000000
-0.0470000000000000
0.00700000000000000
0.216000000000000
0.00400000000000000
-0.118000000000000
-0.0360000000000000
-0.0240000000000000
-0.131000000000000
-0.123000000000000
0.106000000000000
0.0890000000000000
-0.0800000000000000
0.0530000000000000
0.00400000000000000
-0.0540000000000000
0.0430000000000000
-0.00100000000000000
-0.0420000000000000
0.0450000000000000
0.122000000000000
0.0150000000000000
-0.151000000000000
-0.133000000000000
-0.0900000000000000
-0.0590000000000000
0.162000000000000
0.170000000000000
0.0320000000000000
-0.103000000000000
-0.159000000000000
0.00400000000000000
0.0120000000000000
0.0430000000000000
0.0200000000000000
-0.0240000000000000
-0.0980000000000000
-0.0360000000000000
0.231000000000000
0.203000000000000
-0.141000000000000
-0.0340000000000000
0.0730000000000000
-0.0160000000000000
-0.172000000000000
-0.0640000000000000
-0.0640000000000000
0.114000000000000
0.170000000000000
-0.0720000000000000
-0.161000000000000
-0.103000000000000
-0.138000000000000
-0.0160000000000000
0.0810000000000000
-0.0190000000000000
-0.0470000000000000
0.0550000000000000
0.139000000000000
0.0350000000000000
-0.156000000000000
0.175000000000000
0.216000000000000
-0.00300000000000000
0.0710000000000000
0.00400000000000000
-0.131000000000000
-0.0700000000000000
0.0940000000000000
0.0760000000000000
-0.0640000000000000
-0.128000000000000
0.0810000000000000
0.0990000000000000
-0.0620000000000000
0.129000000000000
-0.0520000000000000
-0.0980000000000000
-0.0750000000000000
-0.00800000000000000
-0.0540000000000000
-0.00600000000000000
0.0550000000000000
0.0710000000000000
0.0680000000000000
0.0680000000000000
-0.0640000000000000
0.0450000000000000
0.0530000000000000
0.0890000000000000
-0.115000000000000
-0.197000000000000
-0.159000000000000
-0.100000000000000
0.0250000000000000
0.0890000000000000
0.183000000000000
0.132000000000000
-0.166000000000000
-0.108000000000000
-0.0470000000000000
0.0320000000000000
0.224000000000000
0.0940000000000000
-0.0240000000000000
0.0730000000000000
-0.0490000000000000
0.0680000000000000
0.310000000000000
-0.0470000000000000
-0.375000000000000
-0.0440000000000000
0.0780000000000000
-0.0980000000000000
-0.177000000000000
0.0120000000000000
0.0270000000000000
-0.0470000000000000
0.0200000000000000
-0.0390000000000000
-0.00300000000000000
0.00200000000000000
0.00700000000000000
0.119000000000000
0.160000000000000
-0.0570000000000000
-0.151000000000000
0.00400000000000000
0.0630000000000000
0.139000000000000
0.0730000000000000
-0.0210000000000000
-0.138000000000000
-0.141000000000000
0.0220000000000000
0.196000000000000
-0.0110000000000000
-0.172000000000000
-0.0490000000000000
0.132000000000000
0.162000000000000
0.0430000000000000
-0.133000000000000
0.00900000000000000
0.00900000000000000
-0.0640000000000000
0.0150000000000000
-0.121000000000000
-0.0490000000000000
-0.0540000000000000
-0.0310000000000000
-0.0440000000000000
-0.0110000000000000
-0.166000000000000
-0.110000000000000
0.170000000000000
0.122000000000000
-0.0240000000000000
0.0530000000000000
0.129000000000000
0.0320000000000000
0.0400000000000000
-0.0290000000000000
0.244000000000000
0.127000000000000
-0.289000000000000
-0.123000000000000
-0.0590000000000000
0.134000000000000
0.00900000000000000
-0.00600000000000000
-0.233000000000000
-0.261000000000000
-0.128000000000000
0.129000000000000
0.119000000000000
-0.0770000000000000
0.0220000000000000
0.109000000000000
0.333000000000000
0.152000000000000
-0.271000000000000
-0.289000000000000
0.275000000000000
0.257000000000000
-0.0130000000000000
-0.192000000000000
-0.0160000000000000
0.0600000000000000
0.0430000000000000
0.0530000000000000
0.114000000000000
0.0430000000000000
-0.108000000000000
-0.0670000000000000
-0.0640000000000000
0.0120000000000000
-0.0240000000000000
-0.0670000000000000
0.0220000000000000
0.129000000000000
-0.0620000000000000
0.313000000000000
-0.00600000000000000
-0.192000000000000
-0.0900000000000000
0.122000000000000
-0.0870000000000000
-0.217000000000000
0.0270000000000000
0.0200000000000000
-0.0260000000000000
-0.0420000000000000
0.0480000000000000
-0.0540000000000000
0.0480000000000000
0.157000000000000
0.0450000000000000
0.0250000000000000
-0.0900000000000000
-0.00300000000000000
-0.0640000000000000
-0.0750000000000000
0.117000000000000
0.168000000000000
-0.0440000000000000
-0.0210000000000000
0.326000000000000
-0.113000000000000
-0.238000000000000
-0.0420000000000000
0.0480000000000000
-0.115000000000000
-0.225000000000000
-0.217000000000000
0.201000000000000
0.0990000000000000
-0.161000000000000
-0.0470000000000000
0.0250000000000000
0.0250000000000000
0.0760000000000000
-0.0590000000000000
0.0760000000000000
0.305000000000000
0.122000000000000
-0.149000000000000
0.0430000000000000
0.104000000000000
-0.388000000000000
-0.105000000000000
0.122000000000000
0.361000000000000
-0.0390000000000000
-0.299000000000000
-0.370000000000000
-0.0980000000000000
0.285000000000000
0.183000000000000
-0.0490000000000000
0.114000000000000
-0.0240000000000000
-0.271000000000000
0.0450000000000000
0.0680000000000000
0.183000000000000
0.0120000000000000
0.117000000000000
0.0810000000000000
-0.0240000000000000
-0.0820000000000000
-0.0870000000000000
0.0450000000000000
0.0710000000000000
0.0580000000000000
0.0300000000000000
-0.0750000000000000
-0.00800000000000000
0.0220000000000000
0.0550000000000000
0.0550000000000000
-0.0980000000000000
-0.128000000000000
-0.0720000000000000
0.104000000000000
0.290000000000000
0.106000000000000
-0.156000000000000
-0.00100000000000000
0.0170000000000000
-0.128000000000000
-0.0470000000000000
-0.0490000000000000
-0.240000000000000
-0.0620000000000000
-0.121000000000000
0.0660000000000000
0.208000000000000
0.129000000000000
0.0550000000000000
-0.0470000000000000
-0.00300000000000000
0.111000000000000
0.00700000000000000
0.0990000000000000
-0.136000000000000
-0.0490000000000000
-0.0950000000000000
0.0890000000000000
0.231000000000000
-0.110000000000000
-0.235000000000000
-0.220000000000000
-0.0160000000000000
0.124000000000000
0.0430000000000000
-0.0900000000000000
0.00400000000000000
0.129000000000000
0.0380000000000000
0.0380000000000000
0.0480000000000000
0.0400000000000000
-0.0470000000000000
0.119000000000000
0.0500000000000000
-0.100000000000000
0.0220000000000000
0.0350000000000000
-0.0130000000000000
0.0150000000000000
-0.187000000000000
-0.0210000000000000
0.155000000000000
-0.0130000000000000
-0.0390000000000000
0.0380000000000000
-0.0470000000000000
0.0580000000000000
0.0400000000000000
0.0730000000000000
-0.0900000000000000
-0.0340000000000000
0.129000000000000
-0.0130000000000000
-0.0240000000000000
-0.0310000000000000
-0.0160000000000000
0.0300000000000000
0.0580000000000000
-0.0520000000000000
0.0430000000000000
0.00700000000000000
-0.0190000000000000
0.00700000000000000
-0.0820000000000000
-0.0980000000000000
-0.0190000000000000
-0.0470000000000000
0.0550000000000000
0.168000000000000
0.0300000000000000
-0.0470000000000000
-0.0490000000000000
-0.0240000000000000
0.0480000000000000
0.0120000000000000
0.101000000000000
-0.0110000000000000
-0.00100000000000000
-0.0540000000000000
0.0120000000000000
0.0480000000000000
-0.0260000000000000
-0.0110000000000000
-0.0870000000000000
-0.0850000000000000
0.0200000000000000
-0.179000000000000
0.0960000000000000
-0.0850000000000000
-0.0750000000000000
0.198000000000000
0.193000000000000
-0.0440000000000000
-0.128000000000000
0.0150000000000000
-0.0590000000000000
-0.00300000000000000
0.0940000000000000
0.0960000000000000
0.277000000000000
0.0990000000000000
-0.258000000000000
0.0380000000000000
0.0940000000000000
-0.271000000000000
-0.230000000000000
-0.0870000000000000
0.132000000000000
0.165000000000000
-0.00600000000000000
-0.00100000000000000
0.00700000000000000
0.0150000000000000
0.0170000000000000
-0.136000000000000
-0.143000000000000
0.282000000000000
0.129000000000000
-0.245000000000000
-0.0210000000000000
0.137000000000000
0.211000000000000
-0.243000000000000
-0.166000000000000
-0.136000000000000
0.00700000000000000
0.0890000000000000
0.173000000000000
-0.138000000000000
0.00700000000000000
0.104000000000000
-0.0420000000000000
0.0760000000000000
0.150000000000000
-0.00800000000000000
0.0710000000000000
-0.0390000000000000
-0.161000000000000
0.00700000000000000
0.0890000000000000
0.0150000000000000
-0.177000000000000
0.0250000000000000
0.0480000000000000
-0.00300000000000000
0.0250000000000000
-0.110000000000000
-0.0620000000000000
0.178000000000000
-0.0360000000000000
-0.0640000000000000
0.0400000000000000
0.188000000000000
0.229000000000000
-0.00600000000000000
-0.0620000000000000
-0.0870000000000000
-0.00300000000000000
-0.105000000000000
-0.0700000000000000
-0.103000000000000
-0.00600000000000000
-0.00300000000000000
-0.110000000000000
0.198000000000000
0.160000000000000
-0.100000000000000
0.0380000000000000
0.0940000000000000
-0.0720000000000000
-0.118000000000000
0.00400000000000000
0.129000000000000
0.407000000000000
0.0170000000000000
-0.0720000000000000
-0.133000000000000
-0.233000000000000
-0.0540000000000000
0.0380000000000000
0.0810000000000000
-0.0390000000000000
-0.128000000000000
0.00900000000000000
-0.0950000000000000
0.00200000000000000
0.0270000000000000
-0.0750000000000000
-0.0570000000000000
-0.0590000000000000
0.0780000000000000
0.152000000000000
0.185000000000000
0.188000000000000
-0.0950000000000000
-0.0340000000000000
0.0760000000000000
0.106000000000000
-0.0620000000000000
-0.215000000000000
-0.215000000000000
-0.0440000000000000
-0.0160000000000000
0.155000000000000
0.122000000000000
0.0120000000000000
-0.0540000000000000
-0.0360000000000000
-0.0360000000000000
-0.0310000000000000
0.142000000000000
-0.0620000000000000
-0.115000000000000
-0.108000000000000
0.213000000000000
0.0380000000000000
-0.192000000000000
-0.0750000000000000
0.00400000000000000
0.208000000000000
-0.123000000000000
0.00400000000000000
-0.00600000000000000
-0.0440000000000000
0.247000000000000
0.111000000000000
-0.248000000000000
-0.0900000000000000
0.114000000000000
0.0990000000000000
0.0270000000000000
0.0270000000000000
-0.0800000000000000
-0.118000000000000
-0.0260000000000000
-0.0190000000000000
0.0530000000000000
0.0730000000000000
-0.0570000000000000
-0.0420000000000000
-0.0130000000000000
-0.0420000000000000
-0.0360000000000000
0.0380000000000000
0.109000000000000
0.129000000000000
-0.0700000000000000
0.00200000000000000
-0.00600000000000000
0.0810000000000000
-0.00600000000000000
0.132000000000000
0.132000000000000
0.0780000000000000
-0.0340000000000000
-0.0850000000000000
-0.0640000000000000
0.0940000000000000
-0.0310000000000000
-0.0240000000000000
0.0270000000000000
-0.314000000000000
-0.105000000000000
-0.0190000000000000
0.0200000000000000
0.0170000000000000
-0.0440000000000000
-0.0900000000000000
0.0350000000000000
-0.172000000000000
-0.0420000000000000
0.310000000000000
0.0600000000000000
0.0450000000000000
-0.0130000000000000
-0.0820000000000000
0.0830000000000000
0.0120000000000000
-0.0700000000000000
-0.0470000000000000
-0.0820000000000000
-0.00100000000000000
-0.0640000000000000
0.0170000000000000
0.0830000000000000
0.0940000000000000
0.145000000000000
0.267000000000000
-0.126000000000000
-0.108000000000000
-0.156000000000000
0.0350000000000000
0.168000000000000
-0.0210000000000000
-0.121000000000000
-0.123000000000000
-0.0160000000000000
0.0860000000000000
0.0660000000000000
-0.149000000000000
-0.0490000000000000
-0.0130000000000000
-0.143000000000000
-0.0700000000000000
0.0660000000000000
0.252000000000000
0.0660000000000000
-0.00300000000000000
0.0200000000000000
-0.0800000000000000
-0.00300000000000000
0.0270000000000000
0.165000000000000
0.0810000000000000
-0.0260000000000000
-0.238000000000000
0.00900000000000000
0.219000000000000
0.0150000000000000
-0.271000000000000
-0.0900000000000000
0.0170000000000000
0.0300000000000000
0.0150000000000000
-0.0520000000000000
-0.0420000000000000
0.0910000000000000
0.0480000000000000
-0.0130000000000000
-0.0260000000000000
0.147000000000000
0.0890000000000000
-0.0770000000000000
-0.0870000000000000
0.0170000000000000
-0.0310000000000000
-0.105000000000000
-0.0770000000000000
-0.108000000000000
-0.0130000000000000
0.0200000000000000
0.178000000000000
0.168000000000000
-0.105000000000000
0.0500000000000000
0.0680000000000000
0.0780000000000000
-0.0470000000000000
-0.164000000000000
0.0400000000000000
0.0600000000000000
0.0270000000000000
0.0150000000000000
0.0300000000000000
0.127000000000000
0.157000000000000
-0.0980000000000000
-0.0930000000000000
-0.131000000000000
-0.0640000000000000
0.160000000000000
0.0450000000000000
0.00900000000000000
0.0400000000000000
-0.143000000000000
-0.233000000000000
0.0830000000000000
0.152000000000000
-0.197000000000000
-0.177000000000000
0.155000000000000
0.249000000000000
-0.0700000000000000
-0.0850000000000000
